energy,productivity,fun,hunger
0.894554,0.469147,0.90996,0.846256
0.894464,0.469102,0.937165,0.846172
0.893928,0.469057,0.937071,0.846087
0.893391,0.469011,0.936977,0.846003
0.892855,0.468966,0.936884,0.845918
0.89232,0.468921,0.93679,0.845833
0.891784,0.468875,0.936696,0.845749
0.891249,0.46883,0.936602,0.845664
0.890715,0.468785,0.936509,0.84558
0.89018,0.46874,0.936415,0.845495
0.889646,0.468694,0.936322,0.845411
0.889113,0.468649,0.936228,0.845326
0.888579,0.468604,0.936134,0.845241
0.888046,0.468558,0.936041,0.845157
0.887513,0.468513,0.935947,0.845072
0.886981,0.468468,0.935853,0.844988
0.886449,0.468423,0.93576,0.844903
0.885917,0.468377,0.935666,0.844819
0.885385,0.468332,0.935573,0.844734
0.884854,0.468287,0.935479,0.84465
0.884323,0.468242,0.935386,0.844565
0.883793,0.468196,0.935292,0.844481
0.883262,0.468151,0.935199,0.844397
0.882733,0.468106,0.935105,0.844312
0.882203,0.468061,0.935012,0.844228
0.881674,0.468015,0.934918,0.844143
0.881145,0.46797,0.934825,0.844059
0.880616,0.467925,0.934731,0.843974
0.880088,0.46788,0.934638,0.84389
0.87956,0.467835,0.934544,0.843806
0.879032,0.467789,0.934451,0.843721
0.878505,0.467744,0.934357,0.843637
0.877978,0.467699,0.934264,0.843553
0.877451,0.467654,0.93417,0.843468
0.876924,0.467609,0.934077,0.843384
0.876398,0.467564,0.933984,0.8433
0.875873,0.467518,0.93389,0.843215
0.875347,0.467473,0.933797,0.843131
0.874822,0.467428,0.933703,0.843047
0.874297,0.467383,0.93361,0.842962
0.873773,0.467338,0.933517,0.842878
0.873248,0.467293,0.933423,0.842794
0.872724,0.467247,0.93333,0.842709
0.872201,0.467202,0.933237,0.842625
0.871678,0.467157,0.933143,0.842541
0.871155,0.467112,0.93305,0.842457
0.870632,0.467067,0.932957,0.842372
0.87011,0.467022,0.932863,0.842288
0.869588,0.466977,0.93277,0.842204
0.869066,0.466931,0.932677,0.84212
0.868544,0.466886,0.932584,0.842035
0.868023,0.466841,0.93249,0.841951
0.867503,0.466796,0.932397,0.841867
0.866982,0.466751,0.932304,0.841783
0.866462,0.466706,0.932211,0.841699
0.865942,0.466661,0.932117,0.841615
0.865423,0.466616,0.932024,0.84153
0.864903,0.466571,0.931931,0.841446
0.864385,0.466526,0.931838,0.841362
0.863866,0.466481,0.931745,0.841278
0.863348,0.466435,0.931651,0.841194
0.86283,0.46639,0.931558,0.84111
0.862743,0.466345,0.931465,0.841026
0.862657,0.4663,0.959313,0.840941
0.86214,0.466255,0.959217,0.840857
0.861622,0.46621,0.959121,0.840773
0.861105,0.466165,0.959025,0.840689
0.860589,0.46612,0.958929,0.840605
0.860072,0.466075,0.958833,0.840521
0.859556,0.46603,0.958738,0.840437
0.859041,0.465985,0.958642,0.840353
0.858525,0.46594,0.958546,0.840269
0.85801,0.465895,0.95845,0.840185
0.857496,0.46585,0.958354,0.840101
0.856981,0.465805,0.958258,0.840017
0.856467,0.46576,0.958163,0.839933
0.855953,0.465715,0.958067,0.839849
0.85544,0.46567,0.957971,0.839765
0.854926,0.465625,0.957875,0.839681
0.854413,0.46558,0.957779,0.839597
0.853901,0.465535,0.957684,0.839513
0.853389,0.46549,0.957588,0.839429
0.852877,0.465445,0.957492,0.839345
0.852365,0.4654,0.957396,0.839261
0.851854,0.465355,0.957301,0.839177
0.851342,0.46531,0.957205,0.839093
0.850832,0.465265,0.957109,0.839009
0.850321,0.46522,0.957013,0.838926
0.849811,0.465175,0.956918,0.838842
0.849301,0.46513,0.956822,0.838758
0.849216,0.465085,0.956726,0.838674
0.849131,0.46504,0.98533,0.83859
0.848622,0.464996,0.985231,0.838506
0.848113,0.464951,0.985132,0.838422
0.847604,0.464906,0.985034,0.838338
0.847095,0.464861,0.984935,0.838255
0.846587,0.464816,0.984837,0.838171
0.846079,0.464771,0.984738,0.838087
0.845572,0.464726,0.98464,0.838003
0.845064,0.464681,0.984542,0.837919
0.844557,0.464636,0.984443,0.837836
0.844051,0.464591,0.984345,0.837752
0.843544,0.464546,0.984246,0.837668
0.843038,0.464502,0.984148,0.837584
0.842533,0.464457,0.984049,0.837501
0.842027,0.464412,0.983951,0.837417
0.841522,0.464367,0.983853,0.837333
0.841017,0.464322,0.983754,0.837249
0.840512,0.464277,0.983656,0.837166
0.840008,0.464232,0.983557,0.837082
0.839504,0.464188,0.983459,0.836998
0.839001,0.464143,0.983361,0.836914
0.838497,0.464098,0.983262,0.836831
0.837994,0.464053,0.983164,0.836747
0.837491,0.464008,0.983066,0.836663
0.836989,0.463963,0.982967,0.83658
0.836487,0.463919,0.982869,0.836496
0.835985,0.463874,0.982771,0.836412
0.835901,0.463829,0.982673,0.836329
0.835818,0.463784,1,0.836245
0.835316,0.463739,0.9999,0.836162
0.834815,0.463694,0.9998,0.836078
0.834314,0.46365,0.9997,0.835994
0.833814,0.463605,0.9996,0.835911
0.833313,0.46356,0.9995,0.835827
0.832814,0.463515,0.9994,0.835744
0.832314,0.46347,0.9993,0.83566
0.831815,0.463426,0.9992,0.835576
0.831315,0.463381,0.9991,0.835493
0.830817,0.463336,0.999,0.835409
0.830318,0.463291,0.998901,0.835326
0.82982,0.463247,0.998801,0.835242
0.829322,0.463202,0.998701,0.835159
0.828825,0.463157,0.998601,0.835075
0.828327,0.463112,0.998501,0.834992
0.827831,0.463068,0.998401,0.834908
0.827334,0.463023,0.998301,0.834825
0.826838,0.462978,0.998202,0.834741
0.826341,0.462933,0.998102,0.834658
0.825846,0.462889,0.998002,0.834574
0.82535,0.462844,0.997902,0.834491
0.824855,0.462799,0.997802,0.834407
0.82436,0.462755,0.997703,0.834324
0.824278,0.46271,0.997603,0.83424
0.824195,0.462665,1,0.834157
0.823701,0.46262,0.9999,0.834074
0.823207,0.462576,0.9998,0.83399
0.822713,0.462531,0.9997,0.833907
0.822219,0.462486,0.9996,0.833823
0.821726,0.462442,0.9995,0.83374
0.821233,0.462397,0.9994,0.833657
0.82074,0.462352,0.9993,0.833573
0.820248,0.462308,0.9992,0.83349
0.819756,0.462263,0.9991,0.833407
0.819264,0.462218,0.999,0.833323
0.818772,0.462174,0.998901,0.83324
0.818281,0.462129,0.998801,0.833157
0.81779,0.462084,0.998701,0.833073
0.8173,0.46204,0.998601,0.83299
0.816809,0.461995,0.998501,0.832907
0.816319,0.46195,0.998401,0.832823
0.815829,0.461906,0.998301,0.83274
0.81534,0.461861,0.998202,0.832657
0.814851,0.461817,0.998102,0.832574
0.814362,0.461772,0.998002,0.83249
0.813873,0.461727,0.997902,0.832407
0.813385,0.461683,0.997802,0.832324
0.812897,0.461638,0.997703,0.832241
0.812409,0.461594,0.997603,0.832157
0.811922,0.461549,0.997503,0.832074
0.811435,0.461504,0.997403,0.831991
0.810948,0.46146,0.997304,0.831908
0.810462,0.461415,0.997204,0.831825
0.809975,0.461371,0.997104,0.831741
0.809489,0.461326,0.997004,0.831658
0.809004,0.461281,0.996905,0.831575
0.808518,0.461237,0.996805,0.831492
0.808033,0.461192,0.996705,0.831409
0.807549,0.461148,0.996606,0.831326
0.807064,0.461103,0.996506,0.831242
0.80658,0.461059,0.996406,0.831159
0.806096,0.461014,0.996307,0.831076
0.805612,0.46097,0.996207,0.830993
0.805129,0.460925,0.996107,0.83091
0.804646,0.46088,0.996008,0.830827
0.804163,0.460836,0.995908,0.830744
0.803681,0.460791,0.995809,0.830661
0.803199,0.460747,0.995709,0.830578
0.802717,0.460702,0.995609,0.830495
0.802235,0.460658,0.99551,0.830412
0.801754,0.460613,0.99541,0.830329
0.801273,0.460569,0.995311,0.830245
0.800792,0.460524,0.995211,0.830162
0.800312,0.46048,0.995112,0.830079
0.799831,0.460435,0.995012,0.829996
0.799352,0.460391,0.994913,0.829913
0.798872,0.460346,0.994813,0.82983
0.798393,0.460302,0.994714,0.829747
0.797914,0.460257,0.994614,0.829664
0.797435,0.460213,0.994515,0.829582
0.796957,0.460169,0.994415,0.829499
0.796877,0.460124,0.994316,0.829416
0.796797,0.46008,1,0.829333
0.796319,0.460035,0.9999,0.82925
0.795841,0.459991,0.9998,0.829167
0.795364,0.459946,0.9997,0.829084
0.794887,0.459902,0.9996,0.829001
0.79441,0.459857,0.9995,0.828918
0.793933,0.459813,0.9994,0.828835
0.793457,0.459769,0.9993,0.828752
0.792981,0.459724,0.9992,0.828669
0.792505,0.45968,0.9991,0.828587
0.79203,0.459635,0.999,0.828504
0.791555,0.459591,0.998901,0.828421
0.79108,0.459546,0.998801,0.828338
0.790605,0.459502,0.998701,0.828255
0.790131,0.459458,0.998601,0.828172
0.789657,0.459413,0.998501,0.82809
0.789183,0.459369,0.998401,0.828007
0.788709,0.459325,0.998301,0.827924
0.788236,0.45928,0.998202,0.827841
0.787763,0.459236,0.998102,0.827758
0.787291,0.459191,0.998002,0.827676
0.786818,0.459147,0.997902,0.827593
0.786346,0.459103,0.997802,0.82751
0.785875,0.459058,0.997703,0.827427
0.785403,0.459014,0.997603,0.827345
0.784932,0.45897,0.997503,0.827262
0.784461,0.458925,0.997403,0.827179
0.78399,0.458881,0.997304,0.827096
0.78352,0.458837,0.997204,0.827014
0.78305,0.458792,0.997104,0.826931
0.78258,0.458748,0.997004,0.826848
0.782111,0.458704,0.996905,0.826766
0.781641,0.458659,0.996805,0.826683
0.781172,0.458615,0.996705,0.8266
0.780704,0.458571,0.996606,0.826518
0.780235,0.458526,0.996506,0.826435
0.779767,0.458482,0.996406,0.826352
0.7793,0.458438,0.996307,0.82627
0.778832,0.458394,0.996207,0.826187
0.778365,0.458349,0.996107,0.826104
0.777898,0.458305,0.996008,0.826022
0.777431,0.458261,0.995908,0.825939
0.776965,0.458216,0.995809,0.825857
0.776498,0.458172,0.995709,0.825774
0.776033,0.458128,0.995609,0.825691
0.775567,0.458084,0.99551,0.825609
0.775489,0.458039,0.99541,0.825526
0.775412,0.457995,1,0.825444
0.774947,0.457951,0.9999,0.825361
0.774482,0.457907,0.9998,0.825279
0.774017,0.457862,0.9997,0.825196
0.773553,0.457818,0.9996,0.825114
0.773089,0.457774,0.9995,0.825031
0.772625,0.45773,0.9994,0.824949
0.772161,0.457685,0.9993,0.824866
0.771698,0.457641,0.9992,0.824784
0.771235,0.457597,0.9991,0.824701
0.770772,0.457553,0.999,0.824619
0.77031,0.457509,0.998901,0.824536
0.769848,0.457464,0.998801,0.824454
0.769386,0.45742,0.998701,0.824371
0.769309,0.457376,0.998601,0.824289
0.769232,0.457332,1,0.824206
0.768771,0.457288,0.9999,0.824124
0.768309,0.457243,0.9998,0.824042
0.767848,0.457199,0.9997,0.823959
0.767388,0.457155,0.9996,0.823877
0.766927,0.457111,0.9995,0.823794
0.766467,0.457067,0.9994,0.823712
0.766007,0.457023,0.9993,0.82363
0.765548,0.456978,0.9992,0.823547
0.765089,0.456934,0.9991,0.823465
0.764629,0.45689,0.999,0.823383
0.764171,0.456846,0.998901,0.8233
0.763712,0.456802,0.998801,0.823218
0.763254,0.456758,0.998701,0.823136
0.762796,0.456714,0.998601,0.823053
0.762339,0.456669,0.998501,0.822971
0.762262,0.456625,0.998401,0.822889
0.762186,0.456581,1,0.822806
0.761729,0.456537,0.9999,0.822724
0.761272,0.456493,0.9998,0.822642
0.760815,0.456449,0.9997,0.82256
0.760359,0.456405,0.9996,0.822477
0.759902,0.456361,0.9995,0.822395
0.759447,0.456317,0.9994,0.822313
0.758991,0.456273,0.9993,0.822231
0.758536,0.456228,0.9992,0.822148
0.75808,0.456184,0.9991,0.822066
0.757626,0.45614,0.999,0.821984
0.757171,0.456096,0.998901,0.821902
0.756717,0.456052,0.998801,0.82182
0.756263,0.456008,0.998701,0.821737
0.755809,0.455964,0.998601,0.821655
0.755734,0.45592,0.998501,0.821573
0.755658,0.455876,1,0.821491
0.755205,0.455832,0.9999,0.821409
0.754752,0.455788,0.9998,0.821327
0.754299,0.455744,0.9997,0.821245
0.753846,0.4557,0.9996,0.821162
0.753394,0.455656,0.9995,0.82108
0.752942,0.455612,0.9994,0.820998
0.75249,0.455568,0.9993,0.820916
0.752039,0.455524,0.9992,0.820834
0.751588,0.45548,0.9991,0.820752
0.751137,0.455436,0.999,0.82067
0.750686,0.455392,0.998901,0.820588
0.750236,0.455348,0.998801,0.820506
0.749786,0.455304,0.998701,0.820424
0.749336,0.45526,0.998601,0.820342
0.748886,0.455216,0.998501,0.82026
0.748437,0.455172,0.998401,0.820178
0.747988,0.455128,0.998301,0.820096
0.747539,0.455084,0.998202,0.820014
0.747091,0.45504,0.998102,0.819932
0.746642,0.454996,0.998002,0.81985
0.746568,0.454952,0.997902,0.819768
0.746493,0.454908,1,0.819686
0.746045,0.454864,0.9999,0.819604
0.745598,0.45482,0.9998,0.819522
0.74515,0.454776,0.9997,0.81944
0.744703,0.454732,0.9996,0.819358
0.744256,0.454688,0.9995,0.819276
0.74381,0.454644,0.9994,0.819194
0.743364,0.4546,0.9993,0.819112
0.742918,0.454556,0.9992,0.81903
0.742472,0.454512,0.9991,0.818948
0.742027,0.454469,0.999,0.818866
0.741581,0.454425,0.998901,0.818784
0.741136,0.454381,0.998801,0.818702
0.740692,0.454337,0.998701,0.818621
0.740247,0.454293,0.998601,0.818539
0.739803,0.454249,0.998501,0.818457
0.739359,0.454205,0.998401,0.818375
0.738916,0.454161,0.998301,0.818293
0.738473,0.454117,0.998202,0.818211
0.738399,0.454074,0.998102,0.81813
0.738325,0.45403,1,0.818048
0.737882,0.453986,0.9999,0.817966
0.737439,0.453942,0.9998,0.817884
0.736997,0.453898,0.9997,0.817802
0.736555,0.453854,0.9996,0.817721
0.736113,0.45381,0.9995,0.817639
0.735671,0.453767,0.9994,0.817557
0.73523,0.453723,0.9993,0.817475
0.734789,0.453679,0.9992,0.817394
0.734348,0.453635,0.9991,0.817312
0.733907,0.453591,0.999,0.81723
0.733467,0.453547,0.998901,0.817148
0.733027,0.453504,0.998801,0.817067
0.732587,0.45346,0.998701,0.816985
0.732148,0.453416,0.998601,0.816903
0.731708,0.453372,0.998501,0.816822
0.731269,0.453328,0.998401,0.81674
0.730831,0.453285,0.998301,0.816658
0.730392,0.453241,0.998202,0.816577
0.729954,0.453197,0.998102,0.816495
0.729516,0.453153,0.998002,0.816413
0.729078,0.453109,0.997902,0.816332
0.729005,0.453066,0.997802,0.81625
0.728933,0.453022,1,0.816168
0.728495,0.452978,0.9999,0.816087
0.728058,0.452934,0.9998,0.816005
0.727621,0.452891,0.9997,0.815923
0.727185,0.452847,0.9996,0.815842
0.726749,0.452803,0.9995,0.81576
0.726313,0.452759,0.9994,0.815679
0.725877,0.452716,0.9993,0.815597
0.725441,0.452672,0.9992,0.815516
0.725006,0.452628,0.9991,0.815434
0.724571,0.452584,0.999,0.815352
0.724136,0.452541,0.998901,0.815271
0.723702,0.452497,0.998801,0.815189
0.723268,0.452453,0.998701,0.815108
0.722834,0.452409,0.998601,0.815026
0.7224,0.452366,0.998501,0.814945
0.721967,0.452322,0.998401,0.814863
0.721534,0.452278,0.998301,0.814782
0.721101,0.452235,0.998202,0.8147
0.720668,0.452191,0.998102,0.814619
0.720236,0.452147,0.998002,0.814538
0.719804,0.452104,0.997902,0.814456
0.719372,0.45206,0.997802,0.814375
0.71894,0.452016,0.997703,0.814293
0.718509,0.451973,0.997603,0.814212
0.718078,0.451929,0.997503,0.81413
0.717647,0.451885,0.997403,0.814049
0.717216,0.451842,0.997304,0.813968
0.716786,0.451798,0.997204,0.813886
0.716356,0.451754,0.997104,0.813805
0.716284,0.451711,0.997004,0.813723
0.716213,0.451667,1,0.813642
0.715783,0.451623,0.9999,0.813561
0.715354,0.45158,0.9998,0.813479
0.714925,0.451536,0.9997,0.813398
0.714496,0.451492,0.9996,0.813317
0.714067,0.451449,0.9995,0.813235
0.713639,0.451405,0.9994,0.813154
0.71321,0.451362,0.9993,0.813073
0.713139,0.451318,0.9992,0.812991
0.713068,0.451274,1,0.81291
0.71264,0.451231,0.9999,0.812829
0.712212,0.451187,0.9998,0.812747
0.711785,0.451144,0.9997,0.812666
0.711358,0.4511,0.9996,0.812585
0.710931,0.451056,0.9995,0.812504
0.710505,0.451013,0.9994,0.812422
0.710079,0.450969,0.9993,0.812341
0.709653,0.450926,0.9992,0.81226
0.709227,0.450882,0.9991,0.812179
0.708801,0.450839,0.999,0.812097
0.708376,0.450795,0.998901,0.812016
0.707951,0.450751,0.998801,0.811935
0.707526,0.450708,0.998701,0.811854
0.707102,0.450664,0.998601,0.811773
0.706678,0.450621,0.998501,0.811691
0.706254,0.450577,0.998401,0.81161
0.70583,0.450534,0.998301,0.811529
0.705406,0.45049,0.998202,0.811448
0.704983,0.450447,0.998102,0.811367
0.70456,0.450403,0.998002,0.811286
0.704138,0.45036,0.997902,0.811205
0.703715,0.450316,0.997802,0.811123
0.703293,0.450273,0.997703,0.811042
0.702871,0.450229,0.997603,0.810961
0.702449,0.450186,0.997503,0.81088
0.702028,0.450142,0.997403,0.810799
0.701607,0.450099,0.997304,0.810718
0.701186,0.450055,0.997204,0.810637
0.700765,0.450012,0.997104,0.810556
0.700345,0.449968,0.997004,0.810475
0.699924,0.449925,0.996905,0.810394
0.699505,0.449881,0.996805,0.810313
0.699085,0.449838,0.996705,0.810232
0.698665,0.449794,0.996606,0.810151
0.698246,0.449751,0.996506,0.81007
0.697827,0.449707,0.996406,0.809989
0.697409,0.449664,0.996307,0.809908
0.69699,0.449621,0.996207,0.809827
0.696572,0.449577,0.996107,0.809746
0.696154,0.449534,0.996008,0.809665
0.695737,0.44949,0.995908,0.809584
0.695319,0.449447,0.995809,0.809503
0.694902,0.449403,0.995709,0.809422
0.694485,0.44936,0.995609,0.809341
0.694068,0.449317,0.99551,0.80926
0.693652,0.449273,0.99541,0.809179
0.693236,0.44923,0.995311,0.809098
0.69282,0.449186,0.995211,0.809017
0.692404,0.449143,0.995112,0.808936
0.691989,0.4491,0.995012,0.808855
0.691574,0.449056,0.994913,0.808774
0.691159,0.449013,0.994813,0.808694
0.690744,0.448969,0.994714,0.808613
0.69033,0.448926,0.994614,0.808532
0.689916,0.448883,0.994515,0.808451
0.689502,0.448839,0.994415,0.80837
0.689088,0.448796,0.994316,0.808289
0.689019,0.448752,0.994216,0.808209
0.68895,0.448709,1,0.808128
0.688537,0.448666,0.9999,0.808047
0.688124,0.448622,0.9998,0.807966
0.687711,0.448579,0.9997,0.807885
0.687298,0.448536,0.9996,0.807804
0.686886,0.448492,0.9995,0.807724
0.686474,0.448449,0.9994,0.807643
0.686062,0.448406,0.9993,0.807562
0.685651,0.448362,0.9992,0.807481
0.685239,0.448319,0.9991,0.807401
0.684828,0.448276,0.999,0.80732
0.684417,0.448232,0.998901,0.807239
0.684007,0.448189,0.998801,0.807158
0.683596,0.448146,0.998701,0.807078
0.683186,0.448103,0.998601,0.806997
0.682776,0.448059,0.998501,0.806916
0.682367,0.448016,0.998401,0.806836
0.681957,0.447973,0.998301,0.806755
0.681548,0.447929,0.998202,0.806674
0.681139,0.447886,0.998102,0.806594
0.68073,0.447843,0.998002,0.806513
0.680322,0.4478,0.997902,0.806432
0.679914,0.447756,0.997802,0.806352
0.679506,0.447713,0.997703,0.806271
0.679098,0.44767,0.997603,0.80619
0.678691,0.447627,0.997503,0.80611
0.678284,0.447583,0.997403,0.806029
0.677877,0.44754,0.997304,0.805949
0.67747,0.447497,0.997204,0.805868
0.677064,0.447454,0.997104,0.805787
0.676657,0.44741,0.997004,0.805707
0.676251,0.447367,0.996905,0.805626
0.675846,0.447324,0.996805,0.805546
0.67544,0.447281,0.996705,0.805465
0.675035,0.447238,0.996606,0.805385
0.67463,0.447194,0.996506,0.805304
0.674225,0.447151,0.996406,0.805224
0.673821,0.447108,0.996307,0.805143
0.673417,0.447065,0.996207,0.805062
0.673013,0.447022,0.996107,0.804982
0.672609,0.446978,0.996008,0.804901
0.672205,0.446935,0.995908,0.804821
0.671802,0.446892,0.995809,0.804741
0.671399,0.446849,0.995709,0.80466
0.670996,0.446806,0.995609,0.80458
0.670594,0.446762,0.99551,0.804499
0.670191,0.446719,0.99541,0.804419
0.669789,0.446676,0.995311,0.804338
0.669722,0.446633,0.995211,0.804258
0.669655,0.44659,1,0.804177
0.669253,0.446547,0.9999,0.804097
0.668852,0.446504,0.9998,0.804017
0.668451,0.44646,0.9997,0.803936
0.66805,0.446417,0.9996,0.803856
0.667649,0.446374,0.9995,0.803775
0.667248,0.446331,0.9994,0.803695
0.666848,0.446288,0.9993,0.803615
0.666448,0.446245,0.9992,0.803534
0.666048,0.446202,0.9991,0.803454
0.665648,0.446159,0.999,0.803374
0.665249,0.446115,0.998901,0.803293
0.66485,0.446072,0.998801,0.803213
0.664451,0.446029,0.998701,0.803133
0.664052,0.445986,0.998601,0.803052
0.663654,0.445943,0.998501,0.802972
0.663256,0.4459,0.998401,0.802892
0.662858,0.445857,0.998301,0.802811
0.66246,0.445814,0.998202,0.802731
0.662063,0.445771,0.998102,0.802651
0.661666,0.445728,0.998002,0.802571
0.661269,0.445685,0.997902,0.80249
0.660872,0.445642,0.997802,0.80241
0.660806,0.445598,0.997703,0.80233
0.66074,0.445555,1,0.80225
0.660343,0.445512,0.9999,0.802169
0.659947,0.445469,0.9998,0.802089
0.659551,0.445426,0.9997,0.802009
0.659156,0.445383,0.9996,0.801929
0.65876,0.44534,0.9995,0.801849
0.658365,0.445297,0.9994,0.801768
0.65797,0.445254,0.9993,0.801688
0.657575,0.445211,0.9992,0.801608
0.657181,0.445168,0.9991,0.801528
0.656786,0.445125,0.999,0.801448
0.656392,0.445082,0.998901,0.801368
0.655999,0.445039,0.998801,0.801287
0.655605,0.444996,0.998701,0.801207
0.655212,0.444953,0.998601,0.801127
0.654819,0.44491,0.998501,0.801047
0.654426,0.444867,0.998401,0.800967
0.654033,0.444824,0.998301,0.800887
0.653641,0.444781,0.998202,0.800807
0.653249,0.444738,0.998102,0.800727
0.652857,0.444695,0.998002,0.800647
0.652465,0.444652,0.997902,0.800567
0.652073,0.444609,0.997802,0.800486
0.651682,0.444566,0.997703,0.800406
0.651291,0.444523,0.997603,0.800326
0.651226,0.44448,0.997503,0.800246
0.651161,0.444438,1,0.800166
0.65077,0.444395,0.9999,0.800086
0.65038,0.444352,0.9998,0.800006
0.64999,0.444309,0.9997,0.799926
0.6496,0.444266,0.9996,0.799846
0.64921,0.444223,0.9995,0.799766
0.648821,0.44418,0.9994,0.799686
0.648431,0.444137,0.9993,0.799606
0.648042,0.444094,0.9992,0.799526
0.647653,0.444051,0.9991,0.799446
0.647265,0.444008,0.999,0.799366
0.646877,0.443965,0.998901,0.799287
0.646488,0.443923,0.998801,0.799207
