energy,productivity,fun,hunger
0.672327,0.670713,0.72797,0.76225
0.67226,0.670659,0.727898,0.762174
0.671856,0.670605,0.727825,0.762097
0.671453,0.670551,0.727752,0.762021
0.67105,0.670497,0.727679,0.761945
0.670648,0.670443,0.727606,0.761869
0.670246,0.67039,0.727534,0.761793
0.669843,0.670336,0.727461,0.761716
0.669442,0.670282,0.727388,0.76164
0.66904,0.670228,0.727315,0.761564
0.668639,0.670174,0.727243,0.761488
0.668237,0.67012,0.72717,0.761412
0.667836,0.670067,0.727097,0.761336
0.667436,0.670013,0.727025,0.76126
0.667035,0.669959,0.726952,0.761183
0.666635,0.669905,0.726879,0.761107
0.666235,0.669851,0.726806,0.761031
0.665836,0.669797,0.726734,0.760955
0.665436,0.669744,0.726661,0.760879
0.665037,0.66969,0.726588,0.760803
0.664638,0.669636,0.726516,0.760727
0.664239,0.669582,0.726443,0.760651
0.663841,0.669528,0.72637,0.760575
0.663442,0.669475,0.726298,0.760499
0.663044,0.669421,0.726225,0.760423
0.662646,0.669367,0.726153,0.760347
0.662249,0.669313,0.72608,0.76027
0.661852,0.66926,0.726007,0.760194
0.661455,0.669206,0.725935,0.760118
0.661058,0.669152,0.725862,0.760042
0.660661,0.669098,0.72579,0.759966
0.660265,0.669045,0.725717,0.75989
0.659869,0.668991,0.725644,0.759814
0.659473,0.668937,0.725572,0.759738
0.659077,0.668883,0.725499,0.759662
0.658682,0.66883,0.725427,0.759587
0.658286,0.668776,0.725354,0.759511
0.657892,0.668722,0.725282,0.759435
0.657497,0.668668,0.725209,0.759359
0.657102,0.668615,0.725137,0.759283
0.656708,0.668561,0.725064,0.759207
0.656314,0.668507,0.724992,0.759131
0.65592,0.668454,0.724919,0.759055
0.655527,0.6684,0.724847,0.758979
0.655134,0.668346,0.724774,0.758903
0.654741,0.668292,0.724702,0.758827
0.654348,0.668239,0.724629,0.758751
0.653955,0.668185,0.724557,0.758676
0.653563,0.668131,0.724484,0.7586
0.653171,0.668078,0.724412,0.758524
0.652779,0.668024,0.724339,0.758448
0.652387,0.66797,0.724267,0.758372
0.651996,0.667917,0.724195,0.758296
0.651605,0.667863,0.724122,0.75822
0.651214,0.667809,0.72405,0.758145
0.650823,0.667756,0.723977,0.758069
0.650433,0.667702,0.723905,0.757993
0.650042,0.667648,0.723832,0.757917
0.649652,0.667595,0.72376,0.757841
0.649263,0.667541,0.723688,0.757766
0.648873,0.667488,0.723615,0.75769
0.648484,0.667434,0.723543,0.757614
0.648095,0.66738,0.723471,0.757538
0.647706,0.667327,0.723398,0.757463
0.647317,0.667273,0.723326,0.757387
0.646929,0.66722,0.723254,0.757311
0.646541,0.667166,0.723181,0.757235
0.646153,0.667112,0.723109,0.75716
0.645765,0.667059,0.723037,0.757084
0.645378,0.667005,0.722964,0.757008
0.644668,0.667619,0.721446,0.756932
0.643959,0.668232,0.719931,0.756857
0.643251,0.668847,0.71842,0.756781
0.642543,0.669462,0.716911,0.756705
0.641836,0.670078,0.715406,0.75663
0.64113,0.670694,0.713904,0.756554
0.640425,0.671311,0.712405,0.756478
0.639721,0.671928,0.710909,0.756403
0.639017,0.672546,0.709416,0.756327
0.638314,0.673164,0.707926,0.756252
0.637612,0.673783,0.70644,0.756176
0.636911,0.674403,0.704956,0.7561
0.63621,0.675023,0.703476,0.756025
0.635511,0.675644,0.701999,0.755949
0.634812,0.676265,0.700525,0.755873
0.634113,0.676887,0.699054,0.755798
0.633416,0.677509,0.697586,0.755722
0.632719,0.678132,0.696121,0.755647
0.632023,0.678756,0.694659,0.755571
0.631328,0.67938,0.693201,0.755496
0.630634,0.680005,0.691745,0.75542
0.62994,0.68063,0.690293,0.755345
0.629247,0.681256,0.688843,0.755269
0.628555,0.681883,0.687397,0.755193
0.627864,0.68251,0.685953,0.755118
0.627173,0.683137,0.684513,0.755042
0.626483,0.683766,0.683076,0.754967
0.625794,0.684394,0.681641,0.754891
0.625106,0.685024,0.68021,0.754816
0.624418,0.685654,0.678782,0.75474
0.623732,0.686284,0.677356,0.754665
0.623046,0.686915,0.675934,0.75459
0.62236,0.687547,0.674515,0.754514
0.621676,0.688179,0.673098,0.754439
0.620992,0.688812,0.671685,0.754363
0.620309,0.689445,0.670275,0.754288
0.619627,0.690079,0.668867,0.754212
0.618945,0.690714,0.667463,0.754137
0.618264,0.691349,0.666061,0.754061
0.617584,0.691985,0.664663,0.753986
0.616905,0.692621,0.663267,0.753911
0.616227,0.693258,0.661874,0.753835
0.615549,0.693896,0.660484,0.75376
0.614872,0.694534,0.659098,0.753684
0.614195,0.695173,0.657714,0.753609
0.61352,0.695812,0.656333,0.753534
0.612845,0.696452,0.654954,0.753458
0.612171,0.697092,0.653579,0.753383
0.611498,0.697733,0.652207,0.753308
0.610825,0.698375,0.650837,0.753232
0.610153,0.699017,0.649471,0.753157
0.609482,0.69966,0.648107,0.753082
0.608812,0.700303,0.646746,0.753006
0.608142,0.700947,0.645388,0.752931
0.607473,0.701592,0.644033,0.752856
0.606805,0.702237,0.64268,0.752781
0.606138,0.702883,0.641331,0.752705
0.605471,0.703529,0.639984,0.75263
0.604805,0.704176,0.63864,0.752555
0.60414,0.704824,0.637299,0.75248
0.603475,0.705472,0.635961,0.752404
0.602812,0.70612,0.634626,0.752329
0.602148,0.70677,0.633293,0.752254
0.601486,0.70742,0.631963,0.752179
0.600825,0.70807,0.630636,0.752103
0.600164,0.708721,0.629312,0.752028
0.599504,0.709373,0.627991,0.751953
0.598844,0.710025,0.626672,0.751878
0.598186,0.710678,0.625356,0.751803
0.597528,0.711332,0.624043,0.751727
0.59687,0.711986,0.622733,0.751652
0.596214,0.712641,0.621425,0.751577
0.595558,0.713296,0.62012,0.751502
0.594903,0.713952,0.618818,0.751427
0.594249,0.714609,0.617519,0.751352
0.593595,0.715266,0.616222,0.751276
0.592942,0.715923,0.614928,0.751201
0.59229,0.716582,0.613637,0.751126
0.591639,0.717241,0.612348,0.751051
0.590988,0.7179,0.611063,0.750976
0.590338,0.71856,0.609779,0.750901
0.589689,0.719221,0.608499,0.750826
0.58904,0.719883,0.607221,0.750751
0.588392,0.720545,0.605946,0.750676
0.587745,0.721207,0.604674,0.750601
0.587098,0.72187,0.603404,0.750526
0.586453,0.722534,0.602137,0.75045
0.585808,0.723199,0.600873,0.750375
0.585163,0.723864,0.599611,0.7503
0.58452,0.724529,0.598352,0.750225
0.583877,0.725196,0.597096,0.75015
0.583235,0.725863,0.595842,0.750075
0.582593,0.72653,0.594591,0.75
0.581952,0.727198,0.593342,0.749925
0.581312,0.727867,0.592096,0.74985
0.580673,0.728536,0.590853,0.749775
0.580034,0.729206,0.589612,0.7497
0.579396,0.729877,0.588374,0.749625
0.578759,0.730548,0.587139,0.74955
0.578122,0.73122,0.585906,0.749475
0.577486,0.731892,0.584676,0.749401
0.576851,0.732565,0.583448,0.749326
0.576217,0.733239,0.582223,0.749251
0.575583,0.733913,0.581,0.749176
0.57495,0.734588,0.57978,0.749101
0.574317,0.735263,0.578563,0.749026
0.573686,0.73594,0.577348,0.748951
0.573055,0.736616,0.576136,0.748876
0.572424,0.737294,0.574926,0.748801
0.571795,0.737972,0.573719,0.748726
0.571166,0.73865,0.572514,0.748651
0.570538,0.73933,0.571312,0.748577
0.56991,0.740009,0.570112,0.748502
0.569283,0.74069,0.568915,0.748427
0.568657,0.741371,0.56772,0.748352
0.568032,0.742053,0.566528,0.748277
0.567407,0.742735,0.565339,0.748202
0.566783,0.743418,0.564152,0.748128
0.566159,0.744102,0.562967,0.748053
0.565537,0.744786,0.561785,0.747978
0.564915,0.745471,0.560605,0.747903
0.564293,0.746157,0.559428,0.747828
0.563673,0.746843,0.558253,0.747754
0.563053,0.74753,0.557081,0.747679
0.562996,0.747469,0.557025,0.747604
0.56294,0.747409,0.573679,0.747529
0.562602,0.747349,0.59083,0.747454
0.562265,0.747289,0.608494,0.74738
0.561928,0.747229,0.626686,0.747305
0.56159,0.747169,0.645422,0.74723
0.561253,0.747109,0.664719,0.747156
0.560917,0.747049,0.684592,0.747081
0.56058,0.746989,0.705059,0.747006
0.560244,0.746929,0.726138,0.746931
0.559908,0.746869,0.726065,0.746857
0.559572,0.746809,0.725993,0.746782
0.559236,0.746749,0.72592,0.746707
0.558901,0.746689,0.725848,0.746633
0.558565,0.746629,0.725775,0.746558
0.55823,0.746569,0.725702,0.746483
0.557895,0.746509,0.72563,0.746409
0.557561,0.746449,0.725557,0.746334
0.557226,0.746389,0.725485,0.746259
0.556892,0.746329,0.725412,0.746185
0.556558,0.746269,0.72534,0.74611
0.556224,0.746209,0.725267,0.746036
0.55589,0.74615,0.725195,0.745961
0.555557,0.74609,0.725122,0.745886
0.555223,0.74603,0.72505,0.745812
0.555168,0.74597,0.724977,0.745737
0.555112,0.74591,0.724905,0.745663
0.555057,0.74585,0.724832,0.745588
0.555001,0.74579,0.72476,0.745514
0.554946,0.74573,0.724687,0.745439
0.55489,0.74567,0.724615,0.745364
0.554835,0.74561,0.724542,0.74529
0.554779,0.74555,0.72447,0.745215
0.554724,0.74549,0.724397,0.745141
0.554668,0.745431,0.724325,0.745066
0.554613,0.745371,0.724252,0.744992
0.554557,0.745311,0.72418,0.744917
0.554502,0.745251,0.724108,0.744843
0.554446,0.745191,0.724035,0.744768
0.554391,0.745131,0.723963,0.744694
0.554336,0.745071,0.72389,0.744619
0.55428,0.745011,0.723818,0.744545
0.554225,0.744952,0.723746,0.744471
0.554169,0.744892,0.723673,0.744396
0.554114,0.744832,0.723601,0.744322
0.554058,0.744772,0.723529,0.744247
0.554003,0.744712,0.723456,0.744173
0.553948,0.744652,0.723384,0.744098
0.553892,0.744593,0.723311,0.744024
0.553837,0.744533,0.723239,0.74395
0.553781,0.744473,0.723167,0.743875
0.553726,0.744413,0.723095,0.743801
0.553671,0.744353,0.723022,0.743726
0.553615,0.744294,0.72295,0.743652
0.55356,0.744234,0.722878,0.743578
0.553505,0.744174,0.722805,0.743503
0.553449,0.744114,0.722733,0.743429
0.553394,0.744054,0.722661,0.743355
0.553339,0.743995,0.722589,0.74328
0.553283,0.743935,0.722516,0.743206
0.553228,0.743875,0.722444,0.743132
0.553173,0.743815,0.722372,0.743057
0.553117,0.743756,0.7223,0.742983
0.553062,0.743696,0.722227,0.742909
0.553007,0.743636,0.722155,0.742834
0.552951,0.743576,0.722083,0.74276
0.552896,0.743517,0.722011,0.742686
0.552841,0.743457,0.721938,0.742612
0.552786,0.743397,0.721866,0.742537
0.55273,0.743337,0.721794,0.742463
0.552675,0.743278,0.721722,0.742389
0.55262,0.743218,0.72165,0.742315
0.552564,0.743158,0.721578,0.74224
0.552509,0.743099,0.721505,0.742166
0.552454,0.743039,0.721433,0.742092
0.552399,0.742979,0.721361,0.742018
0.552343,0.74292,0.721289,0.741943
0.552288,0.74286,0.721217,0.741869
0.552233,0.7428,0.721145,0.741795
0.552178,0.74274,0.721073,0.741721
0.552123,0.742681,0.721,0.741647
0.552067,0.742621,0.720928,0.741573
0.552012,0.742561,0.720856,0.741498
0.551957,0.742502,0.720784,0.741424
0.551902,0.742442,0.720712,0.74135
0.551847,0.742383,0.72064,0.741276
0.551791,0.742323,0.720568,0.741202
0.551736,0.742263,0.720496,0.741128
0.551681,0.742204,0.720424,0.741054
0.551626,0.742144,0.720352,0.74098
0.551571,0.742084,0.72028,0.740905
0.551515,0.742025,0.720208,0.740831
0.55146,0.741965,0.720136,0.740757
0.551405,0.741906,0.720064,0.740683
0.55135,0.741846,0.719992,0.740609
0.551295,0.741786,0.71992,0.740535
0.55124,0.741727,0.719848,0.740461
0.551185,0.741667,0.719776,0.740387
0.55113,0.741608,0.719704,0.740313
0.551074,0.741548,0.719632,0.740239
0.551019,0.741488,0.71956,0.740165
0.550964,0.741429,0.719488,0.740091
0.550909,0.741369,0.719416,0.740017
0.550854,0.74131,0.719344,0.739943
0.550799,0.74125,0.719272,0.739869
0.550744,0.741191,0.7192,0.739795
0.550689,0.741131,0.719128,0.739721
0.550634,0.741072,0.719056,0.739647
0.550579,0.741012,0.718984,0.739573
0.550524,0.740953,0.718912,0.739499
0.550469,0.740893,0.718841,0.739425
0.550414,0.740833,0.718769,0.739351
0.550358,0.740774,0.718697,0.739277
0.550303,0.740714,0.718625,0.739203
0.550248,0.740655,0.718553,0.739129
0.550193,0.740595,0.718481,0.739055
0.550138,0.740536,0.718409,0.738981
0.550083,0.740476,0.718338,0.738908
0.550028,0.740417,0.718266,0.738834
0.549973,0.740357,0.718194,0.73876
0.549918,0.740298,0.718122,0.738686
0.549863,0.740239,0.71805,0.738612
0.549808,0.740179,0.717978,0.738538
0.549753,0.74012,0.717907,0.738464
0.549698,0.74006,0.717835,0.738391
0.549643,0.740001,0.717763,0.738317
0.549588,0.739941,0.717691,0.738243
0.549534,0.739882,0.71762,0.738169
0.549479,0.739822,0.717548,0.738095
0.549424,0.739763,0.717476,0.738021
0.549369,0.739704,0.717404,0.737948
0.549314,0.739644,0.717333,0.737874
0.549259,0.739585,0.717261,0.7378
0.549204,0.739525,0.717189,0.737726
0.549149,0.739466,0.717117,0.737652
0.549094,0.739406,0.717046,0.737579
0.549039,0.739347,0.716974,0.737505
0.548984,0.739288,0.716902,0.737431
0.548929,0.739228,0.716831,0.737357
0.548874,0.739169,0.716759,0.737284
0.54882,0.739109,0.716687,0.73721
0.548765,0.73905,0.716616,0.737136
0.54871,0.738991,0.716544,0.737063
0.548655,0.738931,0.716472,0.736989
0.5486,0.738872,0.716401,0.736915
0.548545,0.738813,0.716329,0.736841
0.54849,0.738753,0.716257,0.736768
0.548435,0.738694,0.716186,0.736694
0.548381,0.738635,0.716114,0.73662
0.548326,0.738575,0.716042,0.736547
0.548271,0.738516,0.715971,0.736473
0.548216,0.738457,0.715899,0.736399
0.548161,0.738397,0.715828,0.736326
0.548107,0.738338,0.715756,0.736252
0.548052,0.738279,0.715684,0.736179
0.547997,0.738219,0.715613,0.736105
0.547942,0.73816,0.715541,0.736031
0.547887,0.738101,0.71547,0.735958
0.547833,0.738041,0.715398,0.735884
0.547778,0.737982,0.715327,0.735811
0.547723,0.737923,0.715255,0.735737
0.547668,0.737864,0.715184,0.735663
0.547613,0.737804,0.715112,0.73559
0.547559,0.737745,0.715041,0.735516
0.547504,0.737686,0.714969,0.735443
0.547449,0.737626,0.714898,0.735369
0.547394,0.737567,0.714826,0.735296
0.54734,0.737508,0.714755,0.735222
0.547285,0.737449,0.714683,0.735149
0.54723,0.737389,0.714612,0.735075
0.547175,0.73733,0.71454,0.735002
0.547121,0.737271,0.714469,0.734928
0.547066,0.737212,0.714397,0.734855
0.547011,0.737153,0.714326,0.734781
0.546957,0.737093,0.714254,0.734708
0.546902,0.737034,0.714183,0.734634
0.546847,0.736975,0.714112,0.734561
0.546793,0.736916,0.71404,0.734487
0.546738,0.736857,0.713969,0.734414
0.546683,0.736797,0.713897,0.73434
0.546629,0.736738,0.713826,0.734267
0.546574,0.736679,0.713755,0.734193
0.546519,0.73662,0.713683,0.73412
0.546465,0.736561,0.713612,0.734047
0.54641,0.736501,0.713541,0.733973
0.546355,0.736442,0.713469,0.7339
0.546301,0.736383,0.713398,0.733826
0.546246,0.736324,0.713327,0.733753
0.546191,0.736265,0.713255,0.73368
0.546137,0.736206,0.713184,0.733606
0.546082,0.736146,0.713113,0.733533
0.546028,0.736087,0.713041,0.73346
0.545973,0.736028,0.71297,0.733386
0.545918,0.735969,0.712899,0.733313
0.545864,0.73591,0.712827,0.73324
0.545809,0.735851,0.712756,0.733166
0.545755,0.735792,0.712685,0.733093
0.5457,0.735733,0.712614,0.73302
0.545645,0.735673,0.712542,0.732946
0.545591,0.735614,0.712471,0.732873
0.545536,0.735555,0.7124,0.7328
0.545482,0.735496,0.712329,0.732726
0.545427,0.735437,0.712257,0.732653
0.545373,0.735378,0.712186,0.73258
0.545318,0.735319,0.712115,0.732507
0.545264,0.73526,0.712044,0.732433
0.545209,0.735201,0.711972,0.73236
0.545155,0.735142,0.711901,0.732287
0.5451,0.735083,0.71183,0.732214
0.545046,0.735024,0.711759,0.73214
0.544991,0.734965,0.711688,0.732067
0.544937,0.734906,0.711616,0.731994
0.544882,0.734847,0.711545,0.731921
0.544828,0.734787,0.711474,0.731848
0.544773,0.734728,0.711403,0.731774
0.544719,0.734669,0.711332,0.731701
0.544664,0.73461,0.711261,0.731628
0.54461,0.734551,0.71119,0.731555
0.544555,0.734492,0.711119,0.731482
0.544501,0.734433,0.711047,0.731409
0.544446,0.734374,0.710976,0.731336
0.544392,0.734315,0.710905,0.731262
0.544337,0.734256,0.710834,0.731189
0.544283,0.734197,0.710763,0.731116
0.544229,0.734138,0.710692,0.731043
0.544174,0.734079,0.710621,0.73097
0.54412,0.73402,0.71055,0.730897
0.544065,0.733962,0.710479,0.730824
0.544011,0.733903,0.710408,0.730751
0.543956,0.733844,0.731647,0.730678
0.54363,0.733785,0.731574,0.730605
0.543304,0.733726,0.7315,0.730531
0.542978,0.733667,0.731427,0.730458
0.542652,0.733608,0.731354,0.730385
0.542327,0.733549,0.731281,0.730312
0.542001,0.73349,0.731208,0.730239
0.541676,0.733431,0.731135,0.730166
0.541351,0.733372,0.731062,0.730093
0.541026,0.733313,0.730989,0.73002
0.540702,0.733254,0.730915,0.729947
0.540377,0.733195,0.730842,0.729874
0.540053,0.733136,0.730769,0.729801
0.539729,0.733078,0.730696,0.729728
0.539405,0.733019,0.730623,0.729655
0.539082,0.73296,0.73055,0.729582
0.538758,0.732901,0.730477,0.729509
0.538435,0.732842,0.730404,0.729436
0.538112,0.732783,0.730331,0.729363
0.537789,0.732724,0.730258,0.729291
0.537467,0.732665,0.730185,0.729218
0.537144,0.732607,0.730112,0.729145
0.536822,0.732548,0.730039,0.729072
0.5365,0.732489,0.729966,0.728999
0.536178,0.73243,0.729893,0.728926
0.535856,0.732371,0.72982,0.728853
0.535535,0.732312,0.729747,0.72878
0.535213,0.732253,0.729674,0.728707
0.534892,0.732195,0.729601,0.728634
0.534571,0.732136,0.729528,0.728562
0.534518,0.732077,0.729455,0.728489
0.534465,0.732018,0.729382,0.728416
0.534411,0.731959,0.729309,0.728343
0.534358,0.731901,0.729236,0.72827
0.534304,0.731842,0.729163,0.728197
0.534251,0.731783,0.72909,0.728125
0.534197,0.731724,0.729017,0.728052
0.534144,0.731665,0.728945,0.727979
0.534091,0.731607,0.728872,0.727906
0.534037,0.731548,0.728799,0.727833
0.533984,0.731489,0.728726,0.727761
0.53393,0.73143,0.728653,0.727688
0.533877,0.731372,0.72858,0.727615
0.533824,0.731313,0.728507,0.727542
0.53377,0.731254,0.728434,0.72747
0.533717,0.731195,0.728362,0.727397
0.533663,0.731137,0.728289,0.727324
0.53361,0.731078,0.728216,0.727251
0.533557,0.731019,0.728143,0.727179
0.533503,0.73096,0.72807,0.727106
0.53345,0.730902,0.727997,0.727033
0.533397,0.730843,0.727925,0.72696
0.533343,0.730784,0.727852,0.726888
0.53329,0.730726,0.727779,0.726815
0.533237,0.730667,0.727706,0.726742
0.533183,0.730608,0.727634,0.72667
0.53313,0.730549,0.727561,0.726597
0.533077,0.730491,0.727488,0.726524
0.533023,0.730432,0.727415,0.726452
0.53297,0.730373,0.727343,0.726379
0.532917,0.730315,0.72727,0.726306
0.532864,0.730256,0.727197,0.726234
0.53281,0.730197,0.727124,0.726161
0.532757,0.730139,0.727052,0.726089
0.532704,0.73008,0.726979,0.726016
0.53265,0.730021,0.726906,0.725943
0.532597,0.729963,0.726834,0.725871
0.532544,0.729904,0.726761,0.725798
0.532491,0.729846,0.726688,0.725726
0.532437,0.729787,0.726616,0.725653
0.532384,0.729728,0.726543,0.72558
0.532331,0.72967,0.72647,0.725508
0.532278,0.729611,0.726398,0.725435
0.532224,0.729552,0.726325,0.725363
0.532171,0.729494,0.726252,0.72529
0.532118,0.729435,0.72618,0.725218
0.532065,0.729377,0.726107,0.725145
0.532012,0.729318,0.726034,0.725073
0.531958,0.729259,0.725962,0.725
0.531905,0.729201,0.725889,0.724928
0.531852,0.729142,0.725817,0.724855
0.531799,0.729084,0.725744,0.724783
0.531746,0.729025,0.725672,0.72471
0.531692,0.728967,0.725599,0.724638
0.531639,0.728908,0.725526,0.724565
0.531586,0.728849,0.725454,0.724493
0.531533,0.728791,0.725381,0.72442
0.53148,0.728732,0.725309,0.724348
0.531161,0.728674,0.725236,0.724276
0.530842,0.728615,0.725164,0.724203
0.530524,0.728557,0.725091,0.724131
0.530205,0.728498,0.725019,0.724058
0.529887,0.72844,0.724946,0.723986
0.529569,0.728381,0.724874,0.723913
0.529252,0.728323,0.724801,0.723841
0.528934,0.728264,0.724729,0.723769
0.528617,0.728206,0.724656,0.723696
0.5283,0.728147,0.724584,0.723624
0.527983,0.728089,0.724511,0.723552
0.527666,0.72803,0.724439,0.723479
0.527349,0.727972,0.724366,0.723407
0.527033,0.727913,0.724294,0.723335
0.526717,0.727855,0.724222,0.723262
0.526401,0.727796,0.724149,0.72319
0.526085,0.727738,0.724077,0.723118
0.525769,0.727679,0.724004,0.723045
0.525454,0.727621,0.723932,0.722973
0.525139,0.727562,0.72386,0.722901
0.524824,0.727504,0.723787,0.722828
0.524509,0.727445,0.723715,0.722756
0.524194,0.727387,0.723642,0.722684
0.52388,0.727329,0.72357,0.722612
0.523565,0.72727,0.723498,0.722539
0.523251,0.727212,0.723425,0.722467
0.522937,0.727153,0.723353,0.722395
0.522624,0.727095,0.723281,0.722323
0.52231,0.727036,0.723208,0.72225
0.521997,0.726978,0.723136,0.722178
0.521684,0.72692,0.723064,0.722106
0.521371,0.726861,0.722991,0.722034
0.521058,0.726803,0.722919,0.721961
0.520745,0.726744,0.722847,0.721889
0.520433,0.726686,0.722774,0.721817
0.52012,0.726628,0.722702,0.721745
0.519808,0.726569,0.72263,0.721673
0.519497,0.726511,0.722558,0.721601
0.519185,0.726453,0.722485,0.721528
0.518873,0.726394,0.722413,0.721456
0.518822,0.726336,0.722341,0.721384
0.51877,0.726278,0.722269,0.721312
0.518718,0.726219,0.722196,0.72124
0.518666,0.726161,0.722124,0.721168
0.518614,0.726103,0.722052,0.721096
0.518562,0.726044,0.72198,0.721023
0.51851,0.725986,0.721908,0.720951
0.518458,0.725928,0.721835,0.720879
0.518407,0.725869,0.721763,0.720807
0.518355,0.725811,0.721691,0.720735
0.518303,0.725753,0.721619,0.720663
