energy,productivity,fun,hunger
0.796394,0.562835,0.596779,0.60736
0.796314,0.562751,0.596719,0.607299
0.795836,0.562668,0.596659,0.607238
0.795359,0.562584,0.5966,0.607178
0.794882,0.562501,0.59654,0.607117
0.794405,0.562417,0.59648,0.607056
0.793928,0.562334,0.596421,0.606996
0.793452,0.56225,0.596361,0.606935
0.792976,0.562167,0.596302,0.606874
0.7925,0.562083,0.596242,0.606814
0.792025,0.562,0.596182,0.606753
0.79155,0.561917,0.596123,0.606692
0.791075,0.561833,0.596063,0.606632
0.7906,0.56175,0.596003,0.606571
0.790126,0.561667,0.595944,0.60651
0.789652,0.561583,0.595884,0.60645
0.789178,0.5615,0.595825,0.606389
0.788704,0.561417,0.595765,0.606328
0.788231,0.561333,0.595706,0.606268
0.787758,0.56125,0.595646,0.606207
0.787286,0.561167,0.595586,0.606146
0.786813,0.561083,0.595527,0.606086
0.786341,0.561,0.595467,0.606025
0.78587,0.560917,0.595408,0.605965
0.785398,0.560834,0.595348,0.605904
0.784927,0.560751,0.595289,0.605843
0.784456,0.560667,0.595229,0.605783
0.783985,0.560584,0.59517,0.605722
0.783515,0.560501,0.59511,0.605662
0.783045,0.560418,0.595051,0.605601
0.782575,0.560335,0.594991,0.605541
0.782106,0.560251,0.594932,0.60548
0.781636,0.560168,0.594872,0.605419
0.781168,0.560085,0.594813,0.605359
0.780699,0.560002,0.594753,0.605298
0.78023,0.559919,0.594694,0.605238
0.779762,0.559836,0.594634,0.605177
0.779295,0.559753,0.594575,0.605117
0.778827,0.55967,0.594515,0.605056
0.77836,0.559587,0.594456,0.604996
0.777893,0.559504,0.594396,0.604935
0.777426,0.559421,0.594337,0.604875
0.77696,0.559338,0.594277,0.604814
0.776494,0.559255,0.594218,0.604754
0.776028,0.559172,0.594159,0.604693
0.775562,0.559089,0.594099,0.604633
0.775097,0.559006,0.59404,0.604572
0.774632,0.558923,0.59398,0.604512
0.774167,0.55884,0.593921,0.604451
0.773703,0.558757,0.593862,0.604391
0.773238,0.558674,0.593802,0.604331
0.772774,0.558591,0.593743,0.60427
0.772311,0.558508,0.593683,0.60421
0.771848,0.558426,0.593624,0.604149
0.771384,0.558343,0.593565,0.604089
0.770536,0.558818,0.592318,0.604028
0.769688,0.559294,0.591075,0.603968
0.768842,0.55977,0.589833,0.603908
0.767996,0.560247,0.588595,0.603847
0.767152,0.560724,0.587359,0.603787
0.766308,0.561201,0.586126,0.603727
0.765465,0.561679,0.584895,0.603666
0.764623,0.562157,0.583667,0.603606
0.763782,0.562636,0.582441,0.603545
0.762942,0.563115,0.581218,0.603485
0.762103,0.563595,0.579998,0.603425
0.761264,0.564074,0.57878,0.603364
0.760427,0.564555,0.577565,0.603304
0.759591,0.565035,0.576352,0.603244
0.758755,0.565517,0.575142,0.603183
0.757921,0.565998,0.573934,0.603123
0.757087,0.56648,0.572729,0.603063
0.756254,0.566962,0.571526,0.603002
0.755423,0.567445,0.570326,0.602942
0.754592,0.567928,0.569128,0.602882
0.753762,0.568412,0.567933,0.602822
0.752933,0.568896,0.566741,0.602761
0.752104,0.56938,0.565551,0.602701
0.751277,0.569865,0.564363,0.602641
0.750451,0.57035,0.563178,0.60258
0.749625,0.570836,0.561996,0.60252
0.748801,0.571322,0.560816,0.60246
0.747977,0.571808,0.559638,0.6024
0.747155,0.572295,0.558463,0.602339
0.746333,0.572783,0.55729,0.602279
0.745512,0.57327,0.55612,0.602219
0.744692,0.573758,0.554952,0.602159
0.743873,0.574247,0.553787,0.602099
0.743055,0.574736,0.552624,0.602038
0.742237,0.575225,0.551464,0.601978
0.741421,0.575715,0.550306,0.601918
0.740606,0.576205,0.54915,0.601858
0.739791,0.576696,0.547997,0.601798
0.738977,0.577187,0.546846,0.601737
0.738164,0.577678,0.545698,0.601677
0.737353,0.57817,0.544552,0.601617
0.736542,0.578663,0.543409,0.601557
0.735731,0.579155,0.542268,0.601497
0.734922,0.579648,0.541129,0.601437
0.734114,0.580142,0.539993,0.601376
0.733306,0.580636,0.538859,0.601316
0.7325,0.58113,0.537727,0.601256
0.731694,0.581625,0.536598,0.601196
0.730889,0.58212,0.535472,0.601136
0.730085,0.582616,0.534347,0.601076
0.729282,0.583112,0.533225,0.601016
0.72848,0.583609,0.532106,0.600956
0.727679,0.584106,0.530988,0.600896
0.726879,0.584603,0.529873,0.600835
0.726079,0.585101,0.528761,0.600775
0.725281,0.585599,0.52765,0.600715
0.724483,0.586098,0.526542,0.600655
0.723686,0.586597,0.525437,0.600595
0.72289,0.587096,0.524333,0.600535
0.722095,0.587596,0.523232,0.600475
0.721301,0.588096,0.522134,0.600415
0.720507,0.588597,0.521037,0.600355
0.719715,0.589098,0.519943,0.600295
0.718923,0.5896,0.518852,0.600235
0.718132,0.590102,0.517762,0.600175
0.717343,0.590604,0.516675,0.600115
0.716554,0.591107,0.51559,0.600055
0.715765,0.591611,0.514507,0.599995
0.714978,0.592114,0.513427,0.599935
0.714192,0.592618,0.512349,0.599875
0.713406,0.593123,0.511273,0.599815
0.712622,0.593628,0.510199,0.599755
0.711838,0.594134,0.509128,0.599695
0.711055,0.594639,0.508059,0.599635
0.710273,0.595146,0.506992,0.599575
0.709491,0.595652,0.505928,0.599515
0.708711,0.59616,0.504865,0.599455
0.707932,0.596667,0.503805,0.599395
0.707153,0.597175,0.502747,0.599335
0.706375,0.597684,0.501692,0.599275
0.705598,0.598193,0.500638,0.599215
0.704822,0.598702,0.499587,0.599155
0.704047,0.599212,0.498538,0.599095
0.703272,0.599722,0.497491,0.599036
0.702499,0.600233,0.496446,0.598976
0.701726,0.600744,0.495404,0.598916
0.700954,0.601255,0.494364,0.598856
0.700183,0.601767,0.493326,0.598796
0.699413,0.60228,0.49229,0.598736
0.698644,0.602792,0.491256,0.598676
0.697876,0.603306,0.490225,0.598616
0.697108,0.603819,0.489195,0.598556
0.696341,0.604334,0.488168,0.598497
0.695575,0.604848,0.487143,0.598437
0.69481,0.605363,0.48612,0.598377
0.694046,0.605879,0.485099,0.598317
0.693283,0.606395,0.484081,0.598257
0.69252,0.606911,0.483064,0.598197
0.691758,0.607428,0.48205,0.598138
0.690998,0.607945,0.481038,0.598078
0.690238,0.608462,0.480028,0.598018
0.689478,0.608981,0.47902,0.597958
0.68872,0.609499,0.478014,0.597898
0.687962,0.610018,0.47701,0.597839
0.687206,0.610537,0.476008,0.597779
0.68645,0.611057,0.475009,0.597719
0.685695,0.611578,0.474011,0.597659
0.684941,0.612098,0.473016,0.597599
0.684187,0.61262,0.472023,0.59754
0.683435,0.613141,0.471032,0.59748
0.682683,0.613663,0.470043,0.59742
0.681932,0.614186,0.469056,0.59736
0.681182,0.614709,0.468071,0.597301
0.680433,0.615232,0.467088,0.597241
0.679685,0.615756,0.466107,0.597181
0.678937,0.61628,0.465128,0.597122
0.67819,0.616805,0.464152,0.597062
0.677444,0.61733,0.463177,0.597002
0.676699,0.617856,0.462204,0.596942
0.675955,0.618382,0.461234,0.596883
0.675211,0.618909,0.460265,0.596823
0.674469,0.619436,0.459299,0.596763
0.673727,0.619963,0.458335,0.596704
0.672986,0.620491,0.457372,0.596644
0.672246,0.621019,0.456412,0.596584
0.671506,0.621548,0.455453,0.596525
0.670768,0.622077,0.454497,0.596465
0.67003,0.622607,0.453543,0.596405
0.669293,0.623137,0.45259,0.596346
0.668557,0.623668,0.45164,0.596286
0.667821,0.624199,0.450692,0.596227
0.667087,0.62473,0.449745,0.596167
0.666353,0.625262,0.448801,0.596107
0.66562,0.625794,0.447858,0.596048
0.664888,0.626327,0.446918,0.595988
0.664157,0.626861,0.44598,0.595928
0.663426,0.627394,0.445043,0.595869
0.662697,0.627929,0.444109,0.595809
0.661968,0.628463,0.443176,0.59575
0.66124,0.628998,0.442246,0.59569
0.660512,0.629534,0.441317,0.595631
0.659786,0.63007,0.44039,0.595571
0.65906,0.630606,0.439465,0.595511
0.658335,0.631143,0.438543,0.595452
0.657611,0.631681,0.437622,0.595392
0.656888,0.632219,0.436703,0.595333
0.656165,0.632757,0.435786,0.595273
0.655443,0.633296,0.434871,0.595214
0.654723,0.633835,0.433958,0.595154
0.654002,0.634375,0.433047,0.595095
0.653283,0.634915,0.432137,0.595035
0.652565,0.635455,0.43123,0.594976
0.651847,0.635997,0.430324,0.594916
0.65113,0.636538,0.429421,0.594857
0.650414,0.63708,0.428519,0.594797
0.649698,0.637623,0.427619,0.594738
0.648984,0.638165,0.426721,0.594678
0.64827,0.638709,0.425825,0.594619
0.647557,0.639253,0.424931,0.594559
0.646845,0.639797,0.424039,0.5945
0.646133,0.640342,0.423148,0.59444
0.645422,0.640887,0.42226,0.594381
0.644713,0.641433,0.421373,0.594322
0.644003,0.641979,0.420488,0.594262
0.643295,0.642525,0.419606,0.594203
0.642588,0.643073,0.418724,0.594143
0.641881,0.64362,0.417845,0.594084
0.641175,0.644168,0.416968,0.594024
0.640469,0.644717,0.416092,0.593965
0.639765,0.645266,0.415219,0.593906
0.639061,0.645815,0.414347,0.593846
0.638358,0.646365,0.413477,0.593787
0.637656,0.646915,0.412608,0.593728
0.636955,0.647466,0.411742,0.593668
0.636254,0.648017,0.410877,0.593609
0.635555,0.648569,0.410015,0.593549
0.634856,0.649121,0.409154,0.59349
0.634157,0.649674,0.408295,0.593431
0.63346,0.650227,0.407437,0.593371
0.632763,0.650781,0.406582,0.593312
0.632067,0.651335,0.405728,0.593253
0.631372,0.65189,0.404876,0.593193
0.630677,0.652445,0.404026,0.593134
0.629984,0.653,0.403177,0.593075
0.629291,0.653556,0.402331,0.593015
0.628599,0.654113,0.401486,0.592956
0.627907,0.65467,0.400643,0.592897
0.627217,0.655227,0.399802,0.592838
0.626527,0.655785,0.398962,0.592778
0.625838,0.656344,0.398125,0.592719
0.625149,0.656902,0.397289,0.59266
0.624462,0.657462,0.396454,0.5926
0.623775,0.658022,0.395622,0.592541
0.623089,0.658582,0.394791,0.592482
0.622403,0.659143,0.393962,0.592423
0.621719,0.659704,0.393135,0.592363
0.621035,0.660266,0.392309,0.592304
0.620352,0.660828,0.391486,0.592245
0.61967,0.66139,0.390664,0.592186
0.618988,0.661954,0.389843,0.592127
0.618307,0.662517,0.389025,0.592067
0.617627,0.663081,0.388208,0.592008
0.616948,0.663646,0.387393,0.591949
0.616269,0.664211,0.386579,0.59189
0.615591,0.664777,0.385767,0.591831
0.614914,0.665343,0.384957,0.591771
0.614238,0.665909,0.384149,0.591712
0.613562,0.666476,0.383342,0.591653
0.612887,0.667044,0.382537,0.591594
0.612213,0.667612,0.381734,0.591535
0.61154,0.66818,0.380933,0.591476
0.610867,0.668749,0.380133,0.591416
0.610195,0.669318,0.379335,0.591357
0.609524,0.669888,0.378538,0.591298
0.608854,0.670459,0.377743,0.591239
0.608184,0.67103,0.37695,0.59118
0.607515,0.671601,0.376159,0.591121
0.606847,0.672173,0.375369,0.591062
0.60618,0.672745,0.37458,0.591002
0.605513,0.673318,0.373794,0.590943
0.604847,0.673891,0.373009,0.590884
0.604182,0.674465,0.372226,0.590825
0.603517,0.675039,0.371444,0.590766
0.602853,0.675614,0.370664,0.590707
0.60219,0.676189,0.369886,0.590648
0.601528,0.676765,0.369109,0.590589
0.600866,0.677341,0.368334,0.59053
0.600205,0.677918,0.367561,0.590471
0.599545,0.678495,0.366789,0.590412
0.598886,0.679073,0.366019,0.590353
0.598227,0.679651,0.36525,0.590294
0.597569,0.68023,0.364483,0.590235
0.596912,0.680809,0.363718,0.590176
0.596255,0.681389,0.362954,0.590117
0.595599,0.681969,0.362192,0.590058
0.594944,0.68255,0.361431,0.589999
0.59429,0.683131,0.360673,0.58994
0.593636,0.683713,0.359915,0.589881
0.592983,0.684295,0.359159,0.589822
0.592331,0.684877,0.358405,0.589763
0.591679,0.685461,0.357653,0.589704
0.591029,0.686044,0.356902,0.589645
0.590379,0.686628,0.356152,0.589586
0.589729,0.687213,0.355404,0.589527
0.589081,0.687798,0.354658,0.589468
0.588433,0.688384,0.353913,0.589409
0.587785,0.68897,0.35317,0.58935
0.587139,0.689557,0.352429,0.589291
0.586493,0.690144,0.351689,0.589232
0.585848,0.690731,0.35095,0.589173
0.585204,0.69132,0.350213,0.589114
0.58456,0.691908,0.349478,0.589055
0.583917,0.692497,0.348744,0.588996
0.583275,0.693087,0.348012,0.588937
0.582633,0.693677,0.347281,0.588879
0.581992,0.694268,0.346552,0.58882
0.581352,0.694859,0.345824,0.588761
0.580713,0.695451,0.345098,0.588702
0.580074,0.696043,0.344373,0.588643
0.579436,0.696635,0.34365,0.588584
0.578799,0.697229,0.342929,0.588525
0.578162,0.697822,0.342209,0.588467
0.577526,0.698416,0.34149,0.588408
0.576891,0.699011,0.340773,0.588349
0.576257,0.699606,0.340057,0.58829
0.575623,0.700202,0.339343,0.588231
0.57499,0.700798,0.338631,0.588172
0.574357,0.701395,0.33792,0.588114
0.573725,0.701992,0.33721,0.588055
0.573094,0.70259,0.336502,0.587996
0.572464,0.703188,0.335795,0.587937
0.571834,0.703787,0.33509,0.587878
0.571205,0.704386,0.334387,0.58782
0.570577,0.704986,0.333685,0.587761
0.56995,0.705586,0.332984,0.587702
0.569323,0.706187,0.332285,0.587643
0.568697,0.706788,0.331587,0.587584
0.568071,0.70739,0.330891,0.587526
0.567446,0.707992,0.330196,0.587467
0.566822,0.708595,0.329503,0.587408
0.566199,0.709199,0.328811,0.587349
0.565576,0.709802,0.32812,0.587291
0.564954,0.710407,0.327431,0.587232
0.564332,0.711012,0.326744,0.587173
0.563712,0.711617,0.326058,0.587115
0.563092,0.712223,0.325373,0.587056
0.562472,0.712829,0.32469,0.586997
0.561854,0.713436,0.324008,0.586938
0.561236,0.714044,0.323328,0.58688
0.560618,0.714652,0.322649,0.586821
0.560002,0.71526,0.321971,0.586762
0.559386,0.715869,0.321295,0.586704
0.55877,0.716479,0.32062,0.586645
0.558156,0.717089,0.319947,0.586586
0.557542,0.7177,0.319275,0.586528
0.556929,0.718311,0.318605,0.586469
0.556316,0.718922,0.317936,0.58641
0.555704,0.719534,0.317268,0.586352
0.555093,0.720147,0.316602,0.586293
0.554483,0.72076,0.315937,0.586234
0.553873,0.721374,0.315274,0.586176
0.553263,0.721988,0.314612,0.586117
0.552655,0.722603,0.313951,0.586059
0.552047,0.723218,0.313292,0.586
0.55144,0.723834,0.312634,0.585941
0.550833,0.72445,0.311978,0.585883
0.550227,0.725067,0.311323,0.585824
0.549622,0.725685,0.310669,0.585766
0.549018,0.726303,0.310017,0.585707
0.548414,0.726921,0.309366,0.585649
0.547811,0.72754,0.308716,0.58559
0.547208,0.728159,0.308068,0.585531
0.546606,0.728779,0.307421,0.585473
0.546005,0.7294,0.306775,0.585414
0.545404,0.730021,0.306131,0.585356
0.544805,0.730643,0.305488,0.585297
0.544205,0.731265,0.304847,0.585239
0.543607,0.731887,0.304207,0.58518
0.543009,0.732511,0.303568,0.585122
0.542412,0.733134,0.302931,0.585063
0.541815,0.733759,0.302295,0.585005
0.541219,0.734383,0.30166,0.584946
0.540624,0.735009,0.301026,0.584888
0.540029,0.735634,0.300394,0.584829
0.539435,0.736261,0.299763,0.584771
0.538842,0.736888,0.299134,0.584712
0.538249,0.737515,0.298506,0.584654
0.537657,0.738143,0.297879,0.584595
0.537066,0.738772,0.297254,0.584537
0.536475,0.739401,0.296629,0.584478
0.535885,0.74003,0.296007,0.58442
0.535296,0.74066,0.295385,0.584361
0.534707,0.741291,0.294765,0.584303
0.534119,0.741922,0.294146,0.584245
0.533531,0.742554,0.293528,0.584186
0.532944,0.743186,0.292912,0.584128
0.532358,0.743819,0.292297,0.584069
0.531773,0.744452,0.291683,0.584011
0.531188,0.745086,0.291071,0.583952
0.530604,0.745721,0.290459,0.583894
0.53002,0.746356,0.289849,0.583836
0.529437,0.746991,0.289241,0.583777
0.528855,0.747627,0.288633,0.583719
0.528802,0.747516,0.288605,0.583661
0.528749,0.747405,0.288576,0.583602
0.528696,0.747295,0.288547,0.583544
0.528643,0.747184,0.288518,0.583485
0.52859,0.747073,0.288489,0.583427
0.528537,0.746962,0.28846,0.583369
0.528485,0.746851,0.288431,0.58331
0.528432,0.74674,0.288403,0.583252
0.528379,0.746629,0.288374,0.583194
0.528326,0.746519,0.288345,0.583135
0.528273,0.746408,0.288316,0.583077
0.52822,0.746297,0.288287,0.583019
0.528168,0.746186,0.288258,0.582961
0.528115,0.746076,0.28823,0.582902
0.528062,0.745965,0.288201,0.582844
0.528009,0.745854,0.288172,0.582786
0.527956,0.745744,0.288143,0.582727
0.527903,0.745633,0.288114,0.582669
0.527851,0.745522,0.288086,0.582611
0.527798,0.745412,0.288057,0.582553
0.527745,0.745301,0.288028,0.582494
0.527692,0.745191,0.287999,0.582436
0.52764,0.74508,0.28797,0.582378
0.527587,0.744969,0.287942,0.58232
0.527534,0.744859,0.287913,0.582261
0.527481,0.744748,0.287884,0.582203
0.527429,0.744638,0.287855,0.582145
0.527376,0.744527,0.287826,0.582087
0.527323,0.744417,0.287798,0.582029
0.52727,0.744306,0.287769,0.58197
0.527218,0.744196,0.28774,0.581912
0.527165,0.744086,0.287711,0.581854
0.527112,0.743975,0.287683,0.581796
0.527059,0.743865,0.287654,0.581738
0.527007,0.743754,0.287625,0.581679
0.526954,0.743644,0.287596,0.581621
0.526901,0.743534,0.287567,0.581563
0.526849,0.743423,0.287539,0.581505
0.526796,0.743313,0.28751,0.581447
0.526743,0.743203,0.287481,0.581389
0.526691,0.743093,0.287452,0.58133
0.526638,0.742982,0.287424,0.581272
0.526585,0.742872,0.287395,0.581214
0.526533,0.742762,0.287366,0.581156
0.52648,0.742652,0.287337,0.581098
0.526427,0.742541,0.287309,0.58104
0.526375,0.742431,0.28728,0.580982
0.526322,0.742321,0.287251,0.580924
0.526269,0.742211,0.287223,0.580866
0.526217,0.742101,0.287194,0.580807
0.526164,0.741991,0.287165,0.580749
0.526112,0.741881,0.287136,0.580691
0.526059,0.741771,0.287108,0.580633
0.526006,0.741661,0.287079,0.580575
0.525954,0.74155,0.28705,0.580517
0.525901,0.74144,0.287022,0.580459
0.525849,0.74133,0.286993,0.580401
0.525796,0.74122,0.286964,0.580343
0.525743,0.74111,0.286935,0.580285
0.525691,0.741,0.286907,0.580227
0.525638,0.740891,0.286878,0.580169
0.525586,0.740781,0.286849,0.580111
0.525533,0.740671,0.286821,0.580053
0.525481,0.740561,0.286792,0.579995
0.525428,0.740451,0.286763,0.579937
0.525375,0.740341,0.286735,0.579879
0.525323,0.740231,0.286706,0.579821
0.52527,0.740121,0.286677,0.579763
0.525218,0.740012,0.286649,0.579705
0.525165,0.739902,0.28662,0.579647
0.525113,0.739792,0.286591,0.579589
0.52506,0.739682,0.286563,0.579531
0.525008,0.739572,0.286534,0.579473
0.524955,0.739463,0.286505,0.579415
0.524903,0.739353,0.286477,0.579357
0.52485,0.739243,0.286448,0.579299
0.524798,0.739134,0.286419,0.579241
0.524745,0.739024,0.286391,0.579183
0.524693,0.738914,0.286362,0.579126
0.52464,0.738805,0.286334,0.579068
0.524588,0.738695,0.286305,0.57901
0.524536,0.738585,0.286276,0.578952
0.524483,0.738476,0.286248,0.578894
0.524431,0.738366,0.286219,0.578836
0.524378,0.738257,0.28619,0.578778
0.524326,0.738147,0.286162,0.57872
0.524273,0.738038,0.286133,0.578662
0.524221,0.737928,0.286105,0.578605
0.524168,0.737819,0.286076,0.578547
0.524116,0.737709,0.286047,0.578489
0.524064,0.7376,0.286019,0.578431
0.524011,0.73749,0.28599,0.578373
0.523959,0.737381,0.285961,0.578315
0.523906,0.737271,0.285933,0.578257
0.523854,0.737162,0.285904,0.5782
0.523802,0.737053,0.285876,0.578142
0.523749,0.736943,0.285847,0.578084
0.523697,0.736834,0.285819,0.578026
0.523645,0.736725,0.28579,0.577968
0.523592,0.736615,0.285761,0.577911
0.52354,0.736506,0.285733,0.577853
0.523487,0.736397,0.285704,0.577795
0.523435,0.736287,0.285676,0.577737
0.523383,0.736178,0.285647,0.577679
0.52333,0.736069,0.285619,0.577622
0.523278,0.73596,0.28559,0.577564
0.523226,0.735851,0.285561,0.577506
0.523173,0.735741,0.285533,0.577448
0.523121,0.735632,0.285504,0.577391
0.523069,0.735523,0.285476,0.577333
0.523016,0.735414,0.285447,0.577275
0.522964,0.735305,0.285419,0.577217
0.522912,0.735196,0.28539,0.57716
0.52286,0.735087,0.285362,0.577102
0.522807,0.734978,0.285333,0.577044
0.522755,0.734868,0.285305,0.576987
0.522703,0.734759,0.285276,0.576929
0.52265,0.73465,0.285247,0.576871
0.522598,0.734541,0.285219,0.576814
0.522546,0.734432,0.28519,0.576756
0.522494,0.734323,0.285162,0.576698
0.522441,0.734215,0.285133,0.57664
0.522389,0.734106,0.285105,0.576583
0.522337,0.733997,0.285076,0.576525
0.522285,0.733888,0.285048,0.576468
0.522233,0.733779,0.285019,0.57641
0.52218,0.73367,0.284991,0.576352
0.522128,0.733561,0.284962,0.576295
0.522076,0.733452,0.284934,0.576237
0.522024,0.733343,0.284905,0.576179
0.521971,0.733235,0.284877,0.576122
0.521919,0.733126,0.284848,0.576064
0.521867,0.733017,0.28482,0.576007
0.521815,0.732908,0.284791,0.575949
0.521763,0.7328,0.284763,0.575891
0.521711,0.732691,0.284734,0.575834
0.521658,0.732582,0.284706,0.575776
0.521606,0.732473,0.284677,0.575719
0.521554,0.732365,0.284649,0.575661
0.521502,0.732256,0.284621,0.575603
0.52145,0.732147,0.284592,0.575546
0.521398,0.732039,0.284564,0.575488
0.521345,0.73193,0.284535,0.575431
0.521293,0.731822,0.284507,0.575373
0.521241,0.731713,0.284478,0.575316
0.521189,0.731604,0.28445,0.575258
0.521137,0.731496,0.284421,0.575201
0.521085,0.731387,0.284393,0.575143
0.521033,0.731279,0.284365,0.575086
0.520981,0.73117,0.284336,0.575028
0.520929,0.731062,0.284308,0.574971
0.520876,0.730953,0.284279,0.574913
0.520824,0.730845,0.284251,0.574856
0.520772,0.730736,0.284222,0.574798
0.52072,0.730628,0.284194,0.574741
0.520668,0.73052,0.284166,0.574683
0.520616,0.730411,0.284137,0.574626
0.520564,0.730303,0.284109,0.574568
0.520512,0.730194,0.28408,0.574511
0.52046,0.730086,0.284052,0.574453
0.520408,0.729978,0.284023,0.574396
0.520356,0.729869,0.283995,0.574338
0.520304,0.729761,0.283967,0.574281
