energy,productivity,fun,hunger
0.835634,0.828541,0.827972,0.544921
0.835551,0.828421,0.827889,0.544867
0.835467,0.828301,0.827806,0.544812
0.835383,0.828181,0.827723,0.544758
0.8353,0.828062,0.827641,0.544703
0.835216,0.827942,0.827558,0.544649
0.835133,0.827822,0.827475,0.544594
0.835049,0.827702,0.827392,0.54454
0.834966,0.827583,0.82731,0.544485
0.834882,0.827463,0.827227,0.544431
0.834799,0.827343,0.827144,0.544377
0.834715,0.827224,0.827061,0.544322
0.834632,0.827104,0.826979,0.544268
0.834548,0.826984,0.826896,0.544213
0.834465,0.826865,0.826813,0.544159
0.834382,0.826745,0.826731,0.544104
0.834298,0.826626,0.826648,0.54405
0.834215,0.826506,0.826565,0.543996
0.834131,0.826386,0.826483,0.543941
0.834048,0.826267,0.8264,0.543887
0.833964,0.826147,0.826317,0.543832
0.833881,0.826028,0.826235,0.543778
0.833798,0.825908,0.826152,0.543724
0.833714,0.825789,0.826069,0.543669
0.833631,0.82567,0.825987,0.543615
0.833548,0.82555,0.825904,0.543561
0.833464,0.825431,0.825822,0.543506
0.833381,0.825311,0.825739,0.543452
0.833297,0.825192,0.825657,0.543398
0.833214,0.825073,0.825574,0.543343
0.833131,0.824953,0.825491,0.543289
0.833048,0.824834,0.825409,0.543235
0.832964,0.824715,0.825326,0.54318
0.832881,0.824595,0.825244,0.543126
0.832798,0.824476,0.825161,0.543072
0.832714,0.824357,0.825079,0.543017
0.832631,0.824238,0.824996,0.542963
0.832548,0.824118,0.824914,0.542909
0.832465,0.823999,0.824831,0.542854
0.832381,0.82388,0.824749,0.5428
0.832298,0.823761,0.824666,0.542746
0.832215,0.823642,0.824584,0.542692
0.832132,0.823523,0.824501,0.542637
0.832048,0.823403,0.824419,0.542583
0.831965,0.823284,0.824336,0.542529
0.831882,0.823165,0.824254,0.542475
0.831799,0.823046,0.824172,0.54242
0.831716,0.822927,0.824089,0.542366
0.831632,0.822808,0.824007,0.542312
0.831549,0.822689,0.823924,0.542258
0.831466,0.82257,0.823842,0.542203
0.831383,0.822451,0.82376,0.542149
0.8313,0.822332,0.823677,0.542095
0.831217,0.822213,0.823595,0.542041
0.831134,0.822094,0.823513,0.541986
0.831051,0.821976,0.82343,0.541932
0.830967,0.821857,0.823348,0.541878
0.830884,0.821738,0.823265,0.541824
0.830801,0.821619,0.823183,0.54177
0.830718,0.8215,0.823101,0.541716
0.830635,0.821381,0.823019,0.541661
0.830552,0.821262,0.822936,0.541607
0.830469,0.821144,0.822854,0.541553
0.830386,0.821025,0.822772,0.541499
0.830303,0.820906,0.822689,0.541445
0.83022,0.820787,0.822607,0.541391
0.830137,0.820669,0.822525,0.541336
0.830054,0.82055,0.822443,0.541282
0.829971,0.820431,0.82236,0.541228
0.829888,0.820313,0.822278,0.541174
0.829805,0.820194,0.822196,0.54112
0.829722,0.820075,0.822114,0.541066
0.829639,0.819957,0.822031,0.541012
0.829556,0.819838,0.821949,0.540958
0.829473,0.81972,0.821867,0.540904
0.82939,0.819601,0.821785,0.540849
0.829307,0.819482,0.821703,0.540795
0.829224,0.819364,0.821621,0.540741
0.829141,0.819245,0.821538,0.540687
0.829058,0.819127,0.821456,0.540633
0.828975,0.819008,0.821374,0.540579
0.828892,0.81889,0.821292,0.540525
0.82881,0.818772,0.82121,0.540471
0.828727,0.818653,0.821128,0.540417
0.828644,0.818535,0.821046,0.540363
0.828561,0.818416,0.820963,0.540309
0.828478,0.818298,0.820881,0.540255
0.828395,0.81818,0.820799,0.540201
0.828312,0.818061,0.820717,0.540147
0.82823,0.817943,0.820635,0.540093
0.828147,0.817825,0.820553,0.540039
0.828064,0.817706,0.820471,0.539985
0.827981,0.817588,0.820389,0.539931
0.827898,0.81747,0.820307,0.539877
0.827816,0.817352,0.820225,0.539823
0.827733,0.817233,0.820143,0.539769
0.82765,0.817115,0.820061,0.539715
0.827567,0.816997,0.819979,0.539661
0.827484,0.816879,0.819897,0.539607
0.827402,0.816761,0.819815,0.539553
0.827319,0.816643,0.819733,0.539499
0.827236,0.816524,0.819651,0.539445
0.827154,0.816406,0.819569,0.539391
0.827071,0.816288,0.819487,0.539337
0.826988,0.81617,0.819405,0.539283
0.826905,0.816052,0.819323,0.539229
0.826823,0.815934,0.819241,0.539175
0.82674,0.815816,0.819159,0.539121
0.826657,0.815698,0.819077,0.539068
0.826575,0.81558,0.818995,0.539014
0.826492,0.815462,0.818913,0.53896
0.826409,0.815344,0.818832,0.538906
0.826327,0.815226,0.81875,0.538852
0.826244,0.815108,0.818668,0.538798
0.826162,0.814991,0.818586,0.538744
0.826079,0.814873,0.818504,0.53869
0.825996,0.814755,0.818422,0.538636
0.825914,0.814637,0.81834,0.538583
0.825831,0.814519,0.818259,0.538529
0.825749,0.814401,0.818177,0.538475
0.825666,0.814284,0.818095,0.538421
0.825583,0.814166,0.818013,0.538367
0.825501,0.814048,0.817931,0.538313
0.825418,0.81393,0.81785,0.538259
0.825336,0.813813,0.817768,0.538206
0.825253,0.813695,0.817686,0.538152
0.825171,0.813577,0.817604,0.538098
0.825088,0.813459,0.817522,0.538044
0.825006,0.813342,0.817441,0.53799
0.824923,0.813224,0.817359,0.537937
0.824841,0.813107,0.817277,0.537883
0.824758,0.812989,0.817195,0.537829
0.824676,0.812871,0.817114,0.537775
0.824593,0.812754,0.817032,0.537721
0.824511,0.812636,0.81695,0.537668
0.824428,0.812519,0.816869,0.537614
0.824346,0.812401,0.816787,0.53756
0.824263,0.812284,0.816705,0.537506
0.824181,0.812166,0.816624,0.537453
0.824099,0.812049,0.816542,0.537399
0.824016,0.811931,0.81646,0.537345
0.823934,0.811814,0.816379,0.537291
0.823851,0.811696,0.816297,0.537238
0.823769,0.811579,0.816215,0.537184
0.823687,0.811462,0.816134,0.53713
0.823604,0.811344,0.816052,0.537077
0.823522,0.811227,0.815971,0.537023
0.82344,0.81111,0.815889,0.536969
0.823357,0.810992,0.815807,0.536915
0.823275,0.810875,0.815726,0.536862
0.823193,0.810758,0.815644,0.536808
0.82311,0.81064,0.815563,0.536754
0.823028,0.810523,0.815481,0.536701
0.822946,0.810406,0.8154,0.536647
0.822863,0.810289,0.815318,0.536593
0.822781,0.810172,0.815236,0.53654
0.822699,0.810054,0.815155,0.536486
0.822616,0.809937,0.815073,0.536432
0.822534,0.80982,0.814992,0.536379
0.822452,0.809703,0.81491,0.536325
0.82237,0.809586,0.814829,0.536271
0.822287,0.809469,0.814747,0.536218
0.822205,0.809352,0.814666,0.536164
0.822123,0.809235,0.814585,0.536111
0.822041,0.809118,0.814503,0.536057
0.821959,0.809001,0.814422,0.536003
0.821876,0.808883,0.81434,0.53595
0.821794,0.808766,0.814259,0.535896
0.821712,0.80865,0.814177,0.535843
0.82163,0.808533,0.814096,0.535789
0.821548,0.808416,0.814014,0.535735
0.821466,0.808299,0.813933,0.535682
0.821383,0.808182,0.813852,0.535628
0.821301,0.808065,0.81377,0.535575
0.821219,0.807948,0.813689,0.535521
0.821137,0.807831,0.813608,0.535468
0.821055,0.807714,0.813526,0.535414
0.820973,0.807597,0.813445,0.535361
0.820891,0.807481,0.813363,0.535307
0.820809,0.807364,0.813282,0.535253
0.820727,0.807247,0.813201,0.5352
0.820644,0.80713,0.81312,0.535146
0.820562,0.807014,0.813038,0.535093
0.82048,0.806897,0.812957,0.535039
0.820398,0.80678,0.812876,0.534986
0.820316,0.806664,0.812794,0.534932
0.820234,0.806547,0.812713,0.534879
0.820152,0.80643,0.812632,0.534825
0.82007,0.806314,0.812551,0.534772
0.819988,0.806197,0.812469,0.534718
0.819906,0.80608,0.812388,0.534665
0.819824,0.805964,0.812307,0.534612
0.819742,0.805847,0.812226,0.534558
0.81966,0.805731,0.812144,0.534505
0.819578,0.805614,0.812063,0.534451
0.819496,0.805498,0.811982,0.534398
0.819414,0.805381,0.811901,0.534344
0.819332,0.805265,0.811819,0.534291
0.81925,0.805148,0.811738,0.534237
0.819169,0.805032,0.811657,0.534184
0.819087,0.804915,0.811576,0.534131
0.819005,0.804799,0.811495,0.534077
0.818923,0.804682,0.811414,0.534024
0.818841,0.804566,0.811333,0.53397
0.818759,0.80445,0.811251,0.533917
0.818677,0.804333,0.81117,0.533864
0.818595,0.804217,0.811089,0.53381
0.818513,0.804101,0.811008,0.533757
0.818432,0.803984,0.810927,0.533703
0.81835,0.803868,0.810846,0.53365
0.818268,0.803752,0.810765,0.533597
0.818186,0.803636,0.810684,0.533543
0.818104,0.803519,0.810603,0.53349
0.818022,0.803403,0.810522,0.533437
0.817941,0.803287,0.810441,0.533383
0.817859,0.803171,0.810359,0.53333
0.817777,0.803055,0.810278,0.533277
0.817695,0.802938,0.810197,0.533223
0.817614,0.802822,0.810116,0.53317
0.817532,0.802706,0.810035,0.533117
0.81745,0.80259,0.809954,0.533063
0.817368,0.802474,0.809873,0.53301
0.817287,0.802358,0.809792,0.532957
0.817205,0.802242,0.809711,0.532903
0.817123,0.802126,0.80963,0.53285
0.817041,0.80201,0.809549,0.532797
0.81696,0.801894,0.809469,0.532744
0.816878,0.801778,0.809388,0.53269
0.816796,0.801662,0.809307,0.532637
0.816715,0.801546,0.809226,0.532584
0.816633,0.80143,0.809145,0.532531
0.816551,0.801314,0.809064,0.532477
0.81647,0.801198,0.808983,0.532424
0.816388,0.801082,0.808902,0.532371
0.816306,0.800966,0.808821,0.532318
0.816225,0.800851,0.80874,0.532264
0.816143,0.800735,0.808659,0.532211
0.816061,0.800619,0.808579,0.532158
0.81598,0.800503,0.808498,0.532105
0.815898,0.800387,0.808417,0.532051
0.815817,0.800272,0.808336,0.531998
0.815735,0.800156,0.808255,0.531945
0.815654,0.80004,0.808174,0.531892
0.815572,0.799924,0.808094,0.531839
0.81549,0.799809,0.808013,0.531785
0.815409,0.799693,0.807932,0.531732
0.815327,0.799577,0.807851,0.531679
0.815246,0.799462,0.80777,0.531626
0.815164,0.799346,0.80769,0.531573
0.815083,0.79923,0.807609,0.53152
0.815001,0.799115,0.807528,0.531466
0.81492,0.798999,0.807447,0.531413
0.814838,0.798884,0.807367,0.53136
0.814757,0.798768,0.807286,0.531307
0.814675,0.798653,0.807205,0.531254
0.814594,0.798537,0.807124,0.531201
0.814512,0.798422,0.807044,0.531148
0.814431,0.798306,0.806963,0.531095
0.814349,0.798191,0.806882,0.531041
0.814268,0.798075,0.806802,0.530988
0.814187,0.79796,0.806721,0.530935
0.814105,0.797844,0.80664,0.530882
0.814024,0.797729,0.80656,0.530829
0.813942,0.797614,0.806479,0.530776
0.813861,0.797498,0.806398,0.530723
0.81378,0.797383,0.806318,0.53067
0.813698,0.797268,0.806237,0.530617
0.813617,0.797152,0.806156,0.530564
0.813535,0.797037,0.806076,0.530511
0.813454,0.796922,0.805995,0.530458
0.813373,0.796806,0.805914,0.530405
0.813291,0.796691,0.805834,0.530351
0.81321,0.796576,0.805753,0.530298
0.813129,0.796461,0.805673,0.530245
0.813047,0.796345,0.805592,0.530192
0.812966,0.79623,0.805512,0.530139
0.812885,0.796115,0.805431,0.530086
0.812804,0.796,0.805351,0.530033
0.812722,0.795885,0.80527,0.52998
0.812641,0.79577,0.805189,0.529927
0.81256,0.795655,0.805109,0.529874
0.812478,0.79554,0.805028,0.529821
0.812397,0.795425,0.804948,0.529768
0.812316,0.795309,0.804867,0.529715
0.812235,0.795194,0.804787,0.529662
0.812154,0.795079,0.804706,0.529609
0.812072,0.794964,0.804626,0.529557
0.811991,0.794849,0.804546,0.529504
0.81191,0.794734,0.804465,0.529451
0.811829,0.79462,0.804385,0.529398
0.811748,0.794505,0.804304,0.529345
0.811666,0.79439,0.804224,0.529292
0.811585,0.794275,0.804143,0.529239
0.811504,0.79416,0.804063,0.529186
0.811423,0.794045,0.803983,0.529133
0.811342,0.79393,0.803902,0.52908
0.811261,0.793815,0.803822,0.529027
0.81118,0.793701,0.803741,0.528974
0.811098,0.793586,0.803661,0.528921
0.811017,0.793471,0.803581,0.528869
0.810936,0.793356,0.8035,0.528816
0.810855,0.793241,0.80342,0.528763
0.810774,0.793127,0.80334,0.52871
0.810693,0.793012,0.803259,0.528657
0.810612,0.792897,0.803179,0.528604
0.810531,0.792783,0.803099,0.528551
0.81045,0.792668,0.803018,0.528498
0.810369,0.792553,0.802938,0.528446
0.810288,0.792439,0.802858,0.528393
0.810207,0.792324,0.802777,0.52834
0.810126,0.792209,0.802697,0.528287
0.810045,0.792095,0.802617,0.528234
0.809964,0.79198,0.802537,0.528181
0.809883,0.791866,0.802456,0.528129
0.809802,0.791751,0.802376,0.528076
0.809721,0.791637,0.802296,0.528023
0.80964,0.791522,0.802216,0.52797
0.809559,0.791408,0.802135,0.527917
0.809478,0.791293,0.802055,0.527865
0.809397,0.791179,0.801975,0.527812
0.809316,0.791064,0.801895,0.527759
0.809235,0.79095,0.801815,0.527706
0.809154,0.790836,0.801734,0.527653
0.809073,0.790721,0.801654,0.527601
0.808992,0.790607,0.801574,0.527548
0.808911,0.790493,0.801494,0.527495
0.80883,0.790378,0.801414,0.527442
0.808749,0.790264,0.801334,0.52739
0.808669,0.79015,0.801253,0.527337
0.808588,0.790035,0.801173,0.527284
0.808507,0.789921,0.801093,0.527231
0.808426,0.789807,0.801013,0.527179
0.808345,0.789693,0.800933,0.527126
0.808264,0.789578,0.800853,0.527073
0.808184,0.789464,0.800773,0.527021
0.808103,0.78935,0.800693,0.526968
0.808022,0.789236,0.800613,0.526915
0.807941,0.789122,0.800533,0.526863
0.80786,0.789007,0.800453,0.52681
0.80778,0.788893,0.800373,0.526757
0.807699,0.788779,0.800293,0.526704
0.807618,0.788665,0.800212,0.526652
0.807537,0.788551,0.800132,0.526599
0.807456,0.788437,0.800052,0.526546
0.807376,0.788323,0.799972,0.526494
0.807295,0.788209,0.799892,0.526441
0.807214,0.788095,0.799812,0.526389
0.807134,0.787981,0.799732,0.526336
0.807053,0.787867,0.799653,0.526283
0.806972,0.787753,0.799573,0.526231
0.806891,0.787639,0.799493,0.526178
0.806811,0.787525,0.799413,0.526125
0.80673,0.787411,0.799333,0.526073
0.806649,0.787297,0.799253,0.52602
0.806569,0.787184,0.799173,0.525968
0.806488,0.78707,0.799093,0.525915
0.806407,0.786956,0.799013,0.525862
0.806327,0.786842,0.798933,0.52581
0.806246,0.786728,0.798853,0.525757
0.806165,0.786614,0.798773,0.525705
0.806085,0.786501,0.798693,0.525652
0.806004,0.786387,0.798614,0.5256
0.805924,0.786273,0.798534,0.525547
0.805843,0.786159,0.798454,0.525494
0.805762,0.786046,0.798374,0.525442
0.805682,0.785932,0.798294,0.525389
0.805601,0.785818,0.798214,0.525337
0.805521,0.785705,0.798135,0.525284
0.80544,0.785591,0.798055,0.525232
0.80536,0.785477,0.797975,0.525179
0.805279,0.785364,0.797895,0.525127
0.805199,0.78525,0.797815,0.525074
0.805118,0.785137,0.797736,0.525022
0.805038,0.785023,0.797656,0.524969
0.804957,0.78491,0.797576,0.524917
0.804877,0.784796,0.797496,0.524864
0.804796,0.784683,0.797417,0.524812
0.804716,0.784569,0.797337,0.524759
0.804635,0.784456,0.797257,0.524707
0.804555,0.784342,0.797177,0.524654
0.804474,0.784229,0.797098,0.524602
0.804394,0.784115,0.797018,0.524549
0.804313,0.784002,0.796938,0.524497
0.804233,0.783888,0.796858,0.524444
0.804152,0.783775,0.796779,0.524392
0.804072,0.783662,0.796699,0.52434
0.803992,0.783548,0.796619,0.524287
0.803911,0.783435,0.79654,0.524235
0.803831,0.783322,0.79646,0.524182
0.803751,0.783208,0.79638,0.52413
0.80367,0.783095,0.796301,0.524077
0.80359,0.782982,0.796221,0.524025
0.803509,0.782869,0.796142,0.523973
0.803429,0.782755,0.796062,0.52392
0.803349,0.782642,0.795982,0.523868
0.803268,0.782529,0.795903,0.523815
0.803188,0.782416,0.795823,0.523763
0.803108,0.782303,0.795744,0.523711
0.803027,0.782189,0.795664,0.523658
0.802947,0.782076,0.795584,0.523606
0.802867,0.781963,0.795505,0.523554
0.802787,0.78185,0.795425,0.523501
0.802706,0.781737,0.795346,0.523449
0.802626,0.781624,0.795266,0.523397
0.802546,0.781511,0.795187,0.523344
0.802465,0.781398,0.795107,0.523292
0.802385,0.781285,0.795028,0.52324
0.802305,0.781172,0.794948,0.523187
0.802225,0.781059,0.794869,0.523135
0.802145,0.780946,0.794789,0.523083
0.802064,0.780833,0.79471,0.52303
0.801984,0.78072,0.79463,0.522978
0.801904,0.780607,0.794551,0.522926
0.801824,0.780494,0.794471,0.522873
0.801744,0.780381,0.794392,0.522821
0.801663,0.780268,0.794312,0.522769
0.801583,0.780156,0.794233,0.522717
0.801503,0.780043,0.794154,0.522664
0.801423,0.77993,0.794074,0.522612
0.801343,0.779817,0.793995,0.52256
0.801263,0.779704,0.793915,0.522507
0.801182,0.779592,0.793836,0.522455
0.801102,0.779479,0.793757,0.522403
0.801022,0.779366,0.793677,0.522351
0.800942,0.779253,0.793598,0.522298
0.800862,0.779141,0.793519,0.522246
0.800782,0.779028,0.793439,0.522194
0.800702,0.778915,0.79336,0.522142
0.800622,0.778803,0.79328,0.52209
0.800542,0.77869,0.793201,0.522037
0.800462,0.778577,0.793122,0.521985
0.800382,0.778465,0.793043,0.521933
0.800302,0.778352,0.792963,0.521881
0.800222,0.77824,0.792884,0.521829
0.800142,0.778127,0.792805,0.521776
0.800062,0.778014,0.792725,0.521724
0.799982,0.777902,0.792646,0.521672
0.799902,0.777789,0.792567,0.52162
0.799822,0.777677,0.792488,0.521568
0.799742,0.777564,0.792408,0.521516
0.799662,0.777452,0.792329,0.521463
0.799582,0.77734,0.79225,0.521411
0.799502,0.777227,0.792171,0.521359
0.799422,0.777115,0.792091,0.521307
0.799342,0.777002,0.792012,0.521255
0.799262,0.77689,0.791933,0.521203
0.799182,0.776778,0.791854,0.521151
0.799102,0.776665,0.791775,0.521099
0.799022,0.776553,0.791695,0.521046
0.798942,0.776441,0.791616,0.520994
0.798862,0.776328,0.791537,0.520942
0.798782,0.776216,0.791458,0.52089
0.798703,0.776104,0.791379,0.520838
0.798623,0.775991,0.7913,0.520786
0.798543,0.775879,0.791221,0.520734
0.798463,0.775767,0.791141,0.520682
0.798383,0.775655,0.791062,0.52063
0.798303,0.775543,0.790983,0.520578
0.798223,0.77543,0.790904,0.520526
0.798144,0.775318,0.790825,0.520474
0.798064,0.775206,0.790746,0.520421
0.797984,0.775094,0.790667,0.520369
0.797904,0.774982,0.790588,0.520317
0.797824,0.77487,0.790509,0.520265
0.797745,0.774758,0.79043,0.520213
0.797665,0.774646,0.790351,0.520161
0.797585,0.774534,0.790272,0.520109
0.797505,0.774422,0.790193,0.520057
0.797426,0.77431,0.790114,0.520005
0.797346,0.774198,0.790035,0.519953
0.797266,0.774086,0.789956,0.519901
0.797186,0.773974,0.789877,0.519849
0.797107,0.773862,0.789798,0.519797
0.797027,0.77375,0.789719,0.519745
0.796947,0.773638,0.78964,0.519693
0.796868,0.773526,0.789561,0.519641
0.796788,0.773414,0.789482,0.519589
0.796708,0.773302,0.789403,0.519537
0.796629,0.77319,0.789324,0.519486
0.796549,0.773079,0.789245,0.519434
0.796469,0.772967,0.789166,0.519382
0.79639,0.772855,0.789087,0.51933
0.79631,0.772743,0.789008,0.519278
0.79623,0.772631,0.788929,0.519226
0.796151,0.77252,0.78885,0.519174
0.796071,0.772408,0.788771,0.519122
0.795991,0.772296,0.788693,0.51907
0.795912,0.772185,0.788614,0.519018
0.795832,0.772073,0.788535,0.518966
0.795753,0.771961,0.788456,0.518914
0.795673,0.77185,0.788377,0.518862
0.795594,0.771738,0.788298,0.518811
0.795514,0.771626,0.788219,0.518759
0.795434,0.771515,0.788141,0.518707
0.795355,0.771403,0.788062,0.518655
0.795275,0.771291,0.787983,0.518603
0.795196,0.77118,0.787904,0.518551
0.795116,0.771068,0.787825,0.518499
0.795037,0.770957,0.787747,0.518448
0.794957,0.770845,0.787668,0.518396
0.794878,0.770734,0.787589,0.518344
0.794798,0.770622,0.78751,0.518292
0.794719,0.770511,0.787432,0.51824
0.794639,0.770399,0.787353,0.518188
0.79456,0.770288,0.787274,0.518137
0.79448,0.770177,0.787195,0.518085
0.794401,0.770065,0.787117,0.518033
0.794322,0.769954,0.787038,0.517981
0.794242,0.769843,0.786959,0.517929
0.794163,0.769731,0.786881,0.517878
0.794083,0.76962,0.786802,0.517826
0.794004,0.769509,0.786723,0.517774
0.793924,0.769397,0.786645,0.517722
0.793845,0.769286,0.786566,0.51767
0.793766,0.769175,0.786487,0.517619
0.793686,0.769063,0.786409,0.517567
0.793607,0.768952,0.78633,0.517515
0.793528,0.768841,0.786251,0.517463
0.793448,0.76873,0.786173,0.517412
0.793369,0.768619,0.786094,0.51736
0.79329,0.768507,0.786015,0.517308
0.79321,0.768396,0.785937,0.517256
0.793131,0.768285,0.785858,0.517205
0.793052,0.768174,0.78578,0.517153
0.792972,0.768063,0.785701,0.517101
0.792893,0.767952,0.785622,0.51705
0.792814,0.767841,0.785544,0.516998
0.792734,0.76773,0.785465,0.516946
0.792655,0.767619,0.785387,0.516894
0.792576,0.767508,0.785308,0.516843
0.792497,0.767397,0.78523,0.516791
0.792417,0.767286,0.785151,0.516739
0.792338,0.767175,0.785073,0.516688
0.792259,0.767064,0.784994,0.516636
0.79218,0.766953,0.784916,0.516584
0.7921,0.766842,0.784837,0.516533
0.792021,0.766731,0.784759,0.516481
0.791942,0.76662,0.78468,0.516429
0.791863,0.766509,0.784602,0.516378
0.791784,0.766398,0.784523,0.516326
0.791704,0.766287,0.784445,0.516275
0.791625,0.766177,0.784366,0.516223
0.791546,0.766066,0.784288,0.516171
0.791467,0.765955,0.78421,0.51612
0.791388,0.765844,0.784131,0.516068
0.791309,0.765733,0.784053,0.516016
0.79123,0.765623,0.783974,0.515965
0.79115,0.765512,0.783896,0.515913
0.791071,0.765401,0.783818,0.515862
0.790992,0.76529,0.783739,0.51581
0.790913,0.76518,0.783661,0.515758
0.790834,0.765069,0.783582,0.515707
0.790755,0.764958,0.783504,0.515655
0.790676,0.764848,0.783426,0.515604
0.790597,0.764737,0.783347,0.515552
0.790518,0.764627,0.783269,0.515501
0.790439,0.764516,0.783191,0.515449
0.79036,0.764405,0.783112,0.515398
0.790281,0.764295,0.783034,0.515346
0.790202,0.764184,0.782956,0.515294
0.790123,0.764074,0.782877,0.515243
