energy,productivity,fun,hunger
0.728064,0.831247,0.685377,0.810315
0.727991,0.831185,0.705867,0.810234
0.727554,0.831122,0.726971,0.810153
0.727118,0.831059,0.726898,0.810072
0.726682,0.830997,0.726825,0.809991
0.726246,0.830934,0.726753,0.80991
0.72581,0.830872,0.72668,0.809829
0.725375,0.830809,0.726607,0.809748
0.724939,0.830746,0.726535,0.809667
0.724504,0.830684,0.726462,0.809586
0.72407,0.830621,0.726389,0.809505
0.723635,0.830559,0.726317,0.809424
0.723201,0.830496,0.726244,0.809343
0.722767,0.830434,0.726172,0.809262
0.722334,0.830371,0.726099,0.809181
0.7219,0.830309,0.726026,0.8091
0.721467,0.830246,0.725954,0.809019
0.721034,0.830184,0.725881,0.808939
0.720602,0.830121,0.725809,0.808858
0.720169,0.830059,0.725736,0.808777
0.719737,0.829996,0.725663,0.808696
0.719306,0.829933,0.725591,0.808615
0.718874,0.829871,0.725518,0.808534
0.718443,0.829808,0.725446,0.808453
0.718012,0.829746,0.725373,0.808372
0.717581,0.829684,0.725301,0.808292
0.71715,0.829621,0.725228,0.808211
0.71672,0.829559,0.725156,0.80813
0.71629,0.829496,0.725083,0.808049
0.71586,0.829434,0.725011,0.807968
0.715431,0.829371,0.724938,0.807888
0.715002,0.829309,0.724866,0.807807
0.714573,0.829246,0.724793,0.807726
0.714144,0.829184,0.724721,0.807645
0.713716,0.829121,0.724648,0.807564
0.713287,0.829059,0.724576,0.807484
0.712859,0.828996,0.724503,0.807403
0.712432,0.828934,0.724431,0.807322
0.712004,0.828872,0.724358,0.807241
0.711577,0.828809,0.724286,0.807161
0.71115,0.828747,0.724213,0.80708
0.710724,0.828684,0.724141,0.806999
0.710297,0.828622,0.724069,0.806919
0.709871,0.82856,0.723996,0.806838
0.709445,0.828497,0.723924,0.806757
0.70902,0.828435,0.723851,0.806677
0.708594,0.828372,0.723779,0.806596
0.708169,0.82831,0.723707,0.806515
0.707744,0.828248,0.723634,0.806435
0.70732,0.828185,0.723562,0.806354
0.706895,0.828123,0.72349,0.806273
0.706471,0.82806,0.723417,0.806193
0.706047,0.827998,0.723345,0.806112
0.705624,0.827936,0.723272,0.806031
0.7052,0.827873,0.7232,0.805951
0.704777,0.827811,0.723128,0.80587
0.704354,0.827749,0.723056,0.80579
0.703932,0.827686,0.722983,0.805709
0.703861,0.827624,0.722911,0.805629
0.703791,0.827562,0.722839,0.805548
0.703721,0.827499,0.722766,0.805467
0.70365,0.827437,0.722694,0.805387
0.70358,0.827375,0.722622,0.805306
0.70351,0.827312,0.72255,0.805226
0.703439,0.82725,0.722477,0.805145
0.703369,0.827188,0.722405,0.805065
0.703299,0.827126,0.722333,0.804984
0.703228,0.827063,0.722261,0.804904
0.703158,0.827001,0.722188,0.804823
0.703088,0.826939,0.722116,0.804743
0.703017,0.826876,0.722044,0.804662
0.702947,0.826814,0.721972,0.804582
0.702877,0.826752,0.7219,0.804501
0.702806,0.82669,0.721827,0.804421
0.702736,0.826627,0.721755,0.80434
0.702666,0.826565,0.721683,0.80426
0.702596,0.826503,0.721611,0.80418
0.702525,0.826441,0.721539,0.804099
0.702455,0.826378,0.721466,0.804019
0.702385,0.826316,0.721394,0.803938
0.702315,0.826254,0.721322,0.803858
0.702244,0.826192,0.72125,0.803778
0.702174,0.826129,0.721178,0.803697
0.702104,0.826067,0.721106,0.803617
0.702034,0.826005,0.721034,0.803536
0.701964,0.825943,0.720962,0.803456
0.701893,0.825881,0.72089,0.803376
0.701823,0.825818,0.720817,0.803295
0.701753,0.825756,0.720745,0.803215
0.701683,0.825694,0.720673,0.803135
0.701613,0.825632,0.720601,0.803054
0.701542,0.82557,0.720529,0.802974
0.701472,0.825508,0.720457,0.802894
0.701402,0.825445,0.720385,0.802814
0.701332,0.825383,0.720313,0.802733
0.701262,0.825321,0.720241,0.802653
0.701192,0.825259,0.720169,0.802573
0.701122,0.825197,0.720097,0.802493
0.701052,0.825135,0.720025,0.802412
0.700981,0.825072,0.719953,0.802332
0.700911,0.82501,0.719881,0.802252
0.700841,0.824948,0.719809,0.802172
0.700771,0.824886,0.719737,0.802091
0.700701,0.824824,0.719665,0.802011
0.700631,0.824762,0.719593,0.801931
0.700561,0.8247,0.719521,0.801851
0.700491,0.824638,0.719449,0.801771
0.700421,0.824575,0.719377,0.80169
0.700351,0.824513,0.719305,0.80161
0.700281,0.824451,0.719233,0.80153
0.700211,0.824389,0.719161,0.80145
0.700141,0.824327,0.719089,0.80137
0.700071,0.824265,0.719018,0.80129
0.700001,0.824203,0.718946,0.80121
0.699931,0.824141,0.718874,0.801129
0.699861,0.824079,0.718802,0.801049
0.699791,0.824017,0.71873,0.800969
0.699721,0.823955,0.718658,0.800889
0.699651,0.823893,0.718586,0.800809
0.699581,0.823831,0.718514,0.800729
0.699511,0.823769,0.718443,0.800649
0.699441,0.823707,0.718371,0.800569
0.699371,0.823644,0.718299,0.800489
0.699301,0.823582,0.718227,0.800409
0.699231,0.82352,0.718155,0.800329
0.699161,0.823458,0.718083,0.800249
0.699091,0.823396,0.718012,0.800169
0.699021,0.823334,0.71794,0.800089
0.698951,0.823272,0.717868,0.800009
0.698882,0.82321,0.717796,0.799929
0.698812,0.823148,0.717724,0.799849
0.698742,0.823086,0.717653,0.799769
0.698672,0.823024,0.717581,0.799689
0.698602,0.822962,0.717509,0.799609
0.698532,0.8229,0.717437,0.799529
0.698462,0.822838,0.717366,0.799449
0.698392,0.822776,0.717294,0.799369
0.698323,0.822715,0.717222,0.799289
0.698253,0.822653,0.71715,0.799209
0.698183,0.822591,0.717079,0.799129
0.698113,0.822529,0.717007,0.799049
0.698043,0.822467,0.716935,0.798969
0.697974,0.822405,0.716864,0.798889
0.697904,0.822343,0.716792,0.798809
0.697834,0.822281,0.71672,0.798729
0.697764,0.822219,0.716649,0.79865
0.697694,0.822157,0.716577,0.79857
0.697625,0.822095,0.716505,0.79849
0.697555,0.822033,0.716434,0.79841
0.697485,0.821971,0.716362,0.79833
0.697415,0.821909,0.71629,0.79825
0.697346,0.821848,0.716219,0.798171
0.697276,0.821786,0.716147,0.798091
0.697206,0.821724,0.716075,0.798011
0.697136,0.821662,0.716004,0.797931
0.697067,0.8216,0.715932,0.797851
0.696997,0.821538,0.715861,0.797772
0.696927,0.821476,0.715789,0.797692
0.696858,0.821414,0.715717,0.797612
0.696788,0.821353,0.715646,0.797532
0.696718,0.821291,0.715574,0.797452
0.696649,0.821229,0.715503,0.797373
0.696579,0.821167,0.715431,0.797293
0.696509,0.821105,0.71536,0.797213
0.69644,0.821043,0.715288,0.797134
0.69637,0.820981,0.715217,0.797054
0.6963,0.82092,0.715145,0.796974
0.696231,0.820858,0.715074,0.796894
0.696161,0.820796,0.715002,0.796815
0.696091,0.820734,0.714931,0.796735
0.696022,0.820672,0.714859,0.796655
0.695952,0.820611,0.714788,0.796576
0.695883,0.820549,0.714716,0.796496
0.695813,0.820487,0.714645,0.796416
0.695743,0.820425,0.714573,0.796337
0.695674,0.820363,0.714502,0.796257
0.695604,0.820302,0.71443,0.796177
0.695535,0.82024,0.714359,0.796098
0.695465,0.820178,0.714287,0.796018
0.695396,0.820116,0.714216,0.795939
0.695326,0.820055,0.714145,0.795859
0.695257,0.819993,0.714073,0.795779
0.695187,0.819931,0.714002,0.7957
0.695118,0.819869,0.71393,0.79562
0.695048,0.819808,0.713859,0.795541
0.694979,0.819746,0.713788,0.795461
0.694909,0.819684,0.713716,0.795382
0.69484,0.819622,0.713645,0.795302
0.69477,0.819561,0.713573,0.795223
0.694701,0.819499,0.713502,0.795143
0.694631,0.819437,0.713431,0.795064
0.694562,0.819375,0.713359,0.794984
0.694492,0.819314,0.713288,0.794905
0.694423,0.819252,0.713217,0.794825
0.694353,0.81919,0.713145,0.794746
0.694284,0.819129,0.713074,0.794666
0.694214,0.819067,0.713003,0.794587
0.694145,0.819005,0.712931,0.794507
0.694076,0.818944,0.71286,0.794428
0.694006,0.818882,0.712789,0.794348
0.693937,0.81882,0.712718,0.794269
0.693867,0.818759,0.712646,0.794189
0.693798,0.818697,0.712575,0.79411
0.693729,0.818635,0.712504,0.794031
0.693659,0.818574,0.712433,0.793951
0.69359,0.818512,0.712361,0.793872
0.693521,0.81845,0.71229,0.793792
0.693451,0.818389,0.712219,0.793713
0.693382,0.818327,0.712148,0.793634
0.693313,0.818265,0.712076,0.793554
0.693243,0.818204,0.712005,0.793475
0.693174,0.818142,0.711934,0.793396
0.693105,0.818081,0.711863,0.793316
0.693035,0.818019,0.711792,0.793237
0.692966,0.817957,0.71172,0.793158
0.692897,0.817896,0.711649,0.793078
0.692827,0.817834,0.711578,0.792999
0.692758,0.817773,0.711507,0.79292
0.692689,0.817711,0.711436,0.79284
0.69262,0.817649,0.711365,0.792761
0.69255,0.817588,0.711294,0.792682
0.692481,0.817526,0.711222,0.792603
0.692412,0.817465,0.711151,0.792523
0.692342,0.817403,0.71108,0.792444
0.692273,0.817342,0.711009,0.792365
0.692204,0.81728,0.710938,0.792286
0.692135,0.817218,0.710867,0.792206
0.692066,0.817157,0.710796,0.792127
0.691996,0.817095,0.710725,0.792048
0.691927,0.817034,0.710654,0.791969
0.691858,0.816972,0.710583,0.79189
0.691789,0.816911,0.710512,0.79181
0.69172,0.816849,0.71044,0.791731
0.69165,0.816788,0.710369,0.791652
0.691581,0.816726,0.731607,0.791573
0.691166,0.816665,0.731534,0.791494
0.690752,0.816603,0.731461,0.791414
0.690337,0.816542,0.731388,0.791335
0.689923,0.81648,0.731315,0.791256
0.689509,0.816419,0.731242,0.791177
0.689096,0.816357,0.731168,0.791098
0.688682,0.816296,0.731095,0.791019
0.688269,0.816234,0.731022,0.79094
0.687856,0.816173,0.730949,0.790861
0.687443,0.816111,0.730876,0.790782
0.687031,0.81605,0.730803,0.790703
0.686619,0.815988,0.73073,0.790623
0.686207,0.815927,0.730657,0.790544
0.685795,0.815866,0.730584,0.790465
0.685384,0.815804,0.730511,0.790386
0.684972,0.815743,0.730438,0.790307
0.684562,0.815681,0.730365,0.790228
0.684151,0.81562,0.730292,0.790149
0.68374,0.815558,0.730219,0.79007
0.68333,0.815497,0.730146,0.789991
0.68292,0.815436,0.730072,0.789912
0.68251,0.815374,0.729999,0.789833
0.682101,0.815313,0.729926,0.789754
0.681692,0.815251,0.729853,0.789675
0.681283,0.81519,0.729781,0.789596
0.680874,0.815129,0.729708,0.789517
0.680466,0.815067,0.729635,0.789438
0.680057,0.815006,0.729562,0.789359
0.679649,0.814944,0.729489,0.78928
0.679242,0.814883,0.729416,0.789202
0.678834,0.814822,0.729343,0.789123
0.678427,0.81476,0.72927,0.789044
0.67802,0.814699,0.729197,0.788965
0.677613,0.814638,0.729124,0.788886
0.677206,0.814576,0.729051,0.788807
0.677139,0.814515,0.728978,0.788728
0.677071,0.814454,0.728905,0.788649
0.677003,0.814392,0.728832,0.78857
0.676936,0.814331,0.728759,0.788492
0.676868,0.81427,0.728687,0.788413
0.6768,0.814208,0.728614,0.788334
0.676733,0.814147,0.728541,0.788255
0.676665,0.814086,0.728468,0.788176
0.676597,0.814024,0.728395,0.788097
0.67653,0.813963,0.728322,0.788019
0.676462,0.813902,0.72825,0.78794
0.676394,0.81384,0.728177,0.787861
0.676327,0.813779,0.728104,0.787782
0.676259,0.813718,0.728031,0.787703
0.676191,0.813657,0.727958,0.787625
0.676124,0.813595,0.727885,0.787546
0.676056,0.813534,0.727813,0.787467
0.675989,0.813473,0.72774,0.787388
0.675921,0.813411,0.727667,0.78731
0.675853,0.81335,0.727594,0.787231
0.675786,0.813289,0.727522,0.787152
0.675718,0.813228,0.727449,0.787073
0.675651,0.813166,0.727376,0.786995
0.675583,0.813105,0.727303,0.786916
0.675515,0.813044,0.727231,0.786837
0.675448,0.812983,0.727158,0.786759
0.67538,0.812921,0.727085,0.78668
0.675313,0.81286,0.727012,0.786601
0.675245,0.812799,0.72694,0.786523
0.675178,0.812738,0.726867,0.786444
0.67511,0.812677,0.726794,0.786365
0.675043,0.812615,0.726722,0.786287
0.674975,0.812554,0.726649,0.786208
0.674908,0.812493,0.726576,0.786129
0.67484,0.812432,0.726504,0.786051
0.674773,0.812371,0.726431,0.785972
0.674705,0.812309,0.726358,0.785894
0.674638,0.812248,0.726286,0.785815
0.67457,0.812187,0.726213,0.785736
0.674503,0.812126,0.726141,0.785658
0.674435,0.812065,0.726068,0.785579
0.674368,0.812004,0.725995,0.785501
0.674301,0.811943,0.725923,0.785422
0.674233,0.811881,0.72585,0.785344
0.674166,0.81182,0.725778,0.785265
0.674098,0.811759,0.725705,0.785187
0.674031,0.811698,0.725632,0.785108
0.673963,0.811637,0.72556,0.78503
0.673896,0.811576,0.725487,0.784951
0.673829,0.811515,0.725415,0.784873
0.673761,0.811453,0.725342,0.784794
0.673694,0.811392,0.72527,0.784716
0.673627,0.811331,0.725197,0.784637
0.673559,0.81127,0.725125,0.784559
0.673492,0.811209,0.725052,0.78448
0.673424,0.811148,0.72498,0.784402
0.673357,0.811087,0.724907,0.784323
0.67329,0.811026,0.724835,0.784245
0.673222,0.810965,0.724762,0.784167
0.673155,0.810904,0.72469,0.784088
0.673088,0.810843,0.724617,0.78401
0.673021,0.810781,0.724545,0.783931
0.672953,0.81072,0.724472,0.783853
0.672886,0.810659,0.7244,0.783775
0.672819,0.810598,0.724327,0.783696
0.672751,0.810537,0.724255,0.783618
0.672684,0.810476,0.724183,0.783539
0.672617,0.810415,0.72411,0.783461
0.67255,0.810354,0.724038,0.783383
0.672482,0.810293,0.723965,0.783304
0.672415,0.810232,0.723893,0.783226
0.672348,0.810171,0.72382,0.783148
0.672281,0.81011,0.723748,0.783069
0.672213,0.810049,0.723676,0.782991
0.672146,0.809988,0.723603,0.782913
0.672079,0.809927,0.723531,0.782834
0.672012,0.809866,0.723459,0.782756
0.671945,0.809805,0.723386,0.782678
0.671877,0.809744,0.723314,0.7826
0.67181,0.809683,0.723242,0.782521
0.671743,0.809622,0.723169,0.782443
0.671676,0.809561,0.723097,0.782365
0.671609,0.8095,0.723025,0.782287
0.671541,0.809439,0.722952,0.782208
0.671474,0.809378,0.72288,0.78213
0.671407,0.809317,0.722808,0.782052
0.67134,0.809256,0.722736,0.781974
0.671273,0.809195,0.722663,0.781896
0.671206,0.809134,0.722591,0.781817
0.671139,0.809074,0.722519,0.781739
0.671072,0.809013,0.722446,0.781661
0.671004,0.808952,0.722374,0.781583
0.670937,0.808891,0.722302,0.781505
0.67087,0.80883,0.72223,0.781427
0.670803,0.808769,0.722158,0.781348
0.670736,0.808708,0.722085,0.78127
0.670669,0.808647,0.722013,0.781192
0.670602,0.808586,0.721941,0.781114
0.670535,0.808525,0.721869,0.781036
0.670468,0.808464,0.721797,0.780958
0.670401,0.808404,0.721724,0.78088
0.670334,0.808343,0.721652,0.780802
0.670267,0.808282,0.72158,0.780724
0.6702,0.808221,0.721508,0.780646
0.670133,0.80816,0.721436,0.780567
0.670066,0.808099,0.721364,0.780489
0.669999,0.808038,0.721291,0.780411
0.669932,0.807977,0.721219,0.780333
0.669865,0.807917,0.721147,0.780255
0.669798,0.807856,0.721075,0.780177
0.669731,0.807795,0.721003,0.780099
0.669664,0.807734,0.720931,0.780021
0.669597,0.807673,0.720859,0.779943
0.66953,0.807612,0.720787,0.779865
0.669463,0.807552,0.720715,0.779787
0.669396,0.807491,0.720643,0.779709
0.669329,0.80743,0.72057,0.779631
0.669262,0.807369,0.720498,0.779553
0.669195,0.807308,0.720426,0.779475
0.669128,0.807248,0.720354,0.779397
0.669061,0.807187,0.720282,0.779319
0.668994,0.807126,0.72021,0.779242
0.668927,0.807065,0.720138,0.779164
0.668861,0.807004,0.720066,0.779086
0.668794,0.806944,0.719994,0.779008
0.668727,0.806883,0.719922,0.77893
0.66866,0.806822,0.71985,0.778852
0.668593,0.806761,0.719778,0.778774
0.668526,0.806701,0.719706,0.778696
0.668459,0.80664,0.719634,0.778618
0.668392,0.806579,0.719562,0.778541
0.668326,0.806518,0.71949,0.778463
0.668259,0.806458,0.719418,0.778385
0.668192,0.806397,0.719346,0.778307
0.668125,0.806336,0.719275,0.778229
0.668058,0.806275,0.719203,0.778151
0.667992,0.806215,0.719131,0.778074
0.667925,0.806154,0.719059,0.777996
0.667858,0.806093,0.718987,0.777918
0.667791,0.806033,0.718915,0.77784
0.667724,0.805972,0.718843,0.777762
0.667658,0.805911,0.718771,0.777685
0.667591,0.805851,0.718699,0.777607
0.667524,0.80579,0.718627,0.777529
0.667457,0.805729,0.718556,0.777451
0.667391,0.805668,0.718484,0.777374
0.667324,0.805608,0.718412,0.777296
0.667257,0.805547,0.71834,0.777218
0.66719,0.805486,0.718268,0.77714
0.667124,0.805426,0.718196,0.777063
0.667057,0.805365,0.718125,0.776985
0.66699,0.805304,0.718053,0.776907
0.666924,0.805244,0.717981,0.77683
0.666857,0.805183,0.717909,0.776752
0.66679,0.805123,0.717837,0.776674
0.666723,0.805062,0.717766,0.776596
0.666657,0.805001,0.717694,0.776519
0.66659,0.804941,0.717622,0.776441
0.666523,0.80488,0.71755,0.776364
0.666457,0.804819,0.717478,0.776286
0.66639,0.804759,0.717407,0.776208
0.666324,0.804698,0.717335,0.776131
0.666257,0.804638,0.717263,0.776053
0.66619,0.804577,0.717192,0.775975
0.666124,0.804516,0.71712,0.775898
0.666057,0.804456,0.717048,0.77582
0.66599,0.804395,0.716976,0.775743
0.665924,0.804335,0.716905,0.775665
0.665857,0.804274,0.716833,0.775588
0.665791,0.804214,0.716761,0.77551
0.665724,0.804153,0.71669,0.775432
0.665658,0.804092,0.716618,0.775355
0.665591,0.804032,0.716546,0.775277
0.665524,0.803971,0.716475,0.7752
0.665458,0.803911,0.716403,0.775122
0.665391,0.80385,0.716331,0.775045
0.665325,0.80379,0.71626,0.774967
0.665258,0.803729,0.716188,0.77489
0.665192,0.803669,0.716117,0.774812
0.665125,0.803608,0.716045,0.774735
0.665059,0.803548,0.715973,0.774657
0.664992,0.803487,0.715902,0.77458
0.664926,0.803427,0.71583,0.774502
0.664859,0.803366,0.715759,0.774425
0.664793,0.803306,0.715687,0.774348
0.664726,0.803245,0.715615,0.77427
0.66466,0.803185,0.715544,0.774193
0.664593,0.803124,0.715472,0.774115
0.664527,0.803064,0.715401,0.774038
0.66446,0.803003,0.715329,0.77396
0.664394,0.802943,0.715258,0.773883
0.664327,0.802882,0.715186,0.773806
0.664261,0.802822,0.715115,0.773728
0.664195,0.802761,0.715043,0.773651
0.664128,0.802701,0.714972,0.773574
0.664062,0.80264,0.7149,0.773496
0.663995,0.80258,0.714829,0.773419
0.663929,0.802519,0.714757,0.773341
0.663863,0.802459,0.714686,0.773264
0.663796,0.802399,0.714614,0.773187
0.66373,0.802338,0.714543,0.773109
0.663663,0.802278,0.714471,0.773032
0.663597,0.802217,0.7144,0.772955
0.663531,0.802157,0.714328,0.772878
0.663464,0.802096,0.714257,0.7728
0.663398,0.802036,0.714186,0.772723
0.663332,0.801976,0.714114,0.772646
0.663265,0.801915,0.714043,0.772568
0.663199,0.801855,0.713971,0.772491
0.663133,0.801794,0.7139,0.772414
0.663066,0.801734,0.713828,0.772337
0.663,0.801674,0.713757,0.772259
0.662934,0.801613,0.713686,0.772182
0.662867,0.801553,0.713614,0.772105
0.662801,0.801493,0.713543,0.772028
0.662735,0.801432,0.713472,0.771951
0.662669,0.801372,0.7134,0.771873
0.662602,0.801312,0.713329,0.771796
0.662536,0.801251,0.713258,0.771719
0.66247,0.801191,0.713186,0.771642
0.662404,0.80113,0.713115,0.771565
0.662337,0.80107,0.713044,0.771488
0.662271,0.80101,0.712972,0.77141
0.662205,0.80095,0.712901,0.771333
0.662139,0.800889,0.71283,0.771256
0.662072,0.800829,0.712758,0.771179
0.662006,0.800769,0.712687,0.771102
0.66194,0.800708,0.712616,0.771025
0.661874,0.800648,0.712545,0.770948
0.661808,0.800588,0.712473,0.770871
0.661742,0.800527,0.712402,0.770794
0.661675,0.800467,0.712331,0.770716
0.661609,0.800407,0.71226,0.770639
0.661543,0.800347,0.712188,0.770562
0.661477,0.800286,0.712117,0.770485
0.661411,0.800226,0.712046,0.770408
0.661345,0.800166,0.711975,0.770331
0.661278,0.800105,0.711904,0.770254
0.661212,0.800045,0.711832,0.770177
0.661146,0.799985,0.711761,0.7701
0.66108,0.799925,0.71169,0.770023
0.661014,0.799864,0.711619,0.769946
0.660948,0.799804,0.711548,0.769869
0.660882,0.799744,0.711477,0.769792
0.660816,0.799684,0.711405,0.769715
0.66075,0.799624,0.711334,0.769638
0.660684,0.799563,0.711263,0.769561
0.660617,0.799503,0.711192,0.769484
0.660551,0.799443,0.711121,0.769407
0.660485,0.799383,0.71105,0.76933
0.660419,0.799322,0.710979,0.769253
0.660353,0.799262,0.710908,0.769176
0.660287,0.799202,0.710837,0.7691
0.660221,0.799142,0.710765,0.769023
0.660155,0.799082,0.710694,0.768946
0.660089,0.799022,0.710623,0.768869
0.660023,0.798961,0.710552,0.768792
0.659957,0.798901,0.710481,0.768715
0.659891,0.798841,0.71041,0.768638
0.659825,0.798781,0.731649,0.768561
0.659429,0.798721,0.731576,0.768484
0.659034,0.798661,0.731503,0.768408
0.658638,0.7986,0.73143,0.768331
0.658243,0.79854,0.731357,0.768254
0.657848,0.79848,0.731284,0.768177
0.657454,0.79842,0.73121,0.7681
0.657059,0.79836,0.731137,0.768024
0.656665,0.7983,0.731064,0.767947
0.656271,0.79824,0.730991,0.76787
0.655877,0.79818,0.730918,0.767793
0.655484,0.798119,0.730845,0.767716
0.65509,0.798059,0.730772,0.76764
0.654697,0.797999,0.730699,0.767563
0.654305,0.797939,0.730626,0.767486
0.653912,0.797879,0.730553,0.767409
0.65352,0.797819,0.73048,0.767333
0.653128,0.797759,0.730406,0.767256
0.652736,0.797699,0.730333,0.767179
0.652344,0.797639,0.73026,0.767102
0.651953,0.797579,0.730187,0.767026
0.651562,0.797519,0.730114,0.766949
0.651171,0.797458,0.730041,0.766872
0.65078,0.797398,0.729968,0.766796
0.65039,0.797338,0.729895,0.766719
0.65,0.797278,0.729822,0.766642
0.64961,0.797218,0.729749,0.766566
0.64922,0.797158,0.729676,0.766489
0.64883,0.797098,0.729603,0.766412
0.648441,0.797038,0.72953,0.766336
0.648052,0.796978,0.729458,0.766259
0.647663,0.796918,0.729385,0.766182
0.647275,0.796858,0.729312,0.766106
