energy,productivity,fun,hunger
0.765557,0.604055,0.948098,0.823572
0.765481,0.604022,0.948003,0.82349
0.765022,0.603989,0.947908,0.823408
0.764563,0.603955,0.947813,0.823325
0.764104,0.603922,0.947718,0.823243
0.763646,0.603889,0.947624,0.823161
0.763187,0.603855,0.947529,0.823078
0.762729,0.603822,0.947434,0.822996
0.762272,0.603789,0.947339,0.822914
0.761815,0.603755,0.947245,0.822832
0.761358,0.603722,0.94715,0.822749
0.760901,0.603689,0.947055,0.822667
0.760444,0.603655,0.946961,0.822585
0.759988,0.603622,0.946866,0.822502
0.759532,0.603589,0.946771,0.82242
0.759076,0.603555,0.946677,0.822338
0.758621,0.603522,0.946582,0.822256
0.758166,0.603489,0.946487,0.822174
0.757711,0.603455,0.946393,0.822091
0.757256,0.603422,0.946298,0.822009
0.756802,0.603389,0.946203,0.821927
0.756348,0.603356,0.946109,0.821845
0.755894,0.603322,0.946014,0.821763
0.755441,0.603289,0.945919,0.82168
0.754988,0.603256,0.945825,0.821598
0.754535,0.603222,0.94573,0.821516
0.754082,0.603189,0.945636,0.821434
0.753629,0.603156,0.945541,0.821352
0.753177,0.603122,0.945447,0.82127
0.750843,0.603692,0.941571,0.821187
0.748515,0.604263,0.937711,0.821105
0.746195,0.604834,0.933866,0.821023
0.743882,0.605405,0.930038,0.820941
0.741576,0.605977,0.926225,0.820859
0.739278,0.606549,0.922428,0.820777
0.736986,0.607122,0.918646,0.820695
0.734702,0.607696,0.91488,0.820613
0.732424,0.60827,0.91113,0.820531
0.730154,0.608845,0.907394,0.820449
0.727891,0.60942,0.903674,0.820367
0.725635,0.609996,0.89997,0.820285
0.723385,0.610572,0.89628,0.820203
0.721143,0.611149,0.892606,0.820121
0.718908,0.611726,0.888946,0.820039
0.716679,0.612304,0.885302,0.819957
0.714458,0.612883,0.881673,0.819875
0.712243,0.613462,0.878058,0.819793
0.710035,0.614041,0.874459,0.819711
0.707835,0.614621,0.870874,0.819629
0.705641,0.615202,0.867303,0.819547
0.703453,0.615783,0.863748,0.819465
0.701273,0.616365,0.860207,0.819383
0.699099,0.616947,0.85668,0.819301
0.696932,0.61753,0.853168,0.819219
0.694772,0.618114,0.849671,0.819137
0.692618,0.618698,0.846187,0.819055
0.690471,0.619282,0.842718,0.818973
0.688331,0.619867,0.839263,0.818891
0.686197,0.620453,0.835823,0.818809
0.68407,0.621039,0.832396,0.818727
0.68195,0.621626,0.828984,0.818646
0.679836,0.622213,0.825585,0.818564
0.677729,0.622801,0.822201,0.818482
0.675628,0.623389,0.81883,0.8184
0.673534,0.623978,0.815473,0.818318
0.671446,0.624568,0.81213,0.818236
0.669365,0.625158,0.808801,0.818155
0.66729,0.625748,0.805485,0.818073
0.665222,0.62634,0.802183,0.817991
0.66316,0.626931,0.798894,0.817909
0.661104,0.627524,0.795619,0.817827
0.659055,0.628116,0.792357,0.817746
0.657012,0.62871,0.789109,0.817664
0.654975,0.629304,0.785874,0.817582
0.652945,0.629898,0.782652,0.8175
0.650921,0.630494,0.779443,0.817418
0.648904,0.631089,0.776248,0.817337
0.646892,0.631685,0.773066,0.817255
0.644887,0.632282,0.769896,0.817173
0.642888,0.63288,0.76674,0.817092
0.640895,0.633477,0.763597,0.81701
0.638909,0.634076,0.760466,0.816928
0.636928,0.634675,0.757349,0.816846
0.634954,0.635275,0.754244,0.816765
0.632986,0.635875,0.751152,0.816683
0.631024,0.636476,0.748072,0.816601
0.629068,0.637077,0.745006,0.81652
0.627118,0.637679,0.741951,0.816438
0.625174,0.638281,0.73891,0.816356
0.623236,0.638884,0.735881,0.816275
0.621304,0.639488,0.732864,0.816193
0.619378,0.640092,0.729859,0.816112
0.617458,0.640697,0.726867,0.81603
0.615545,0.641302,0.723887,0.815948
0.613637,0.641908,0.72092,0.815867
0.611734,0.642514,0.717964,0.815785
0.609838,0.643121,0.715021,0.815704
0.607948,0.643729,0.712089,0.815622
0.606063,0.644337,0.70917,0.81554
0.604185,0.644946,0.706263,0.815459
0.602312,0.645555,0.703367,0.815377
0.600445,0.646165,0.700484,0.815296
0.598584,0.646775,0.697612,0.815214
0.596728,0.647387,0.694752,0.815133
0.594879,0.647998,0.691904,0.815051
0.593035,0.64861,0.689068,0.81497
0.591197,0.649223,0.686243,0.814888
0.589364,0.649836,0.683429,0.814807
0.587537,0.65045,0.680628,0.814725
0.585716,0.651065,0.677837,0.814644
0.5839,0.65168,0.675058,0.814562
0.582091,0.652296,0.672291,0.814481
0.580286,0.652912,0.669535,0.814399
0.578488,0.653529,0.66679,0.814318
0.576694,0.654146,0.664056,0.814237
0.574907,0.654764,0.661334,0.814155
0.573125,0.655383,0.658623,0.814074
0.571348,0.656002,0.655923,0.813992
0.569577,0.656622,0.653234,0.813911
0.567812,0.657242,0.650556,0.81383
0.566052,0.657863,0.647889,0.813748
0.564297,0.658485,0.645233,0.813667
0.562548,0.659107,0.642587,0.813585
0.560804,0.659729,0.639953,0.813504
0.559066,0.660353,0.63733,0.813423
0.557333,0.660977,0.634717,0.813341
0.555605,0.661601,0.632115,0.81326
0.553883,0.662226,0.629523,0.813179
0.552166,0.662852,0.626942,0.813097
0.550455,0.663478,0.624372,0.813016
0.548749,0.664105,0.621813,0.812935
0.547048,0.664732,0.619263,0.812853
0.545352,0.66536,0.616725,0.812772
0.543661,0.665989,0.614196,0.812691
0.541976,0.666618,0.611678,0.81261
0.540296,0.667248,0.609171,0.812528
0.538622,0.667878,0.606673,0.812447
0.536952,0.668509,0.604186,0.812366
0.535288,0.669141,0.601709,0.812285
0.533628,0.669773,0.599243,0.812203
0.531974,0.670406,0.596786,0.812122
0.530325,0.671039,0.594339,0.812041
0.528681,0.671673,0.591903,0.81196
0.527043,0.672308,0.589476,0.811879
0.525409,0.672943,0.58706,0.811797
0.52378,0.673578,0.584653,0.811716
0.522157,0.674215,0.582256,0.811635
0.520538,0.674852,0.579869,0.811554
0.518925,0.675489,0.577492,0.811473
0.517316,0.676128,0.575124,0.811392
0.515713,0.676766,0.572767,0.81131
0.514114,0.677406,0.570418,0.811229
0.512521,0.678046,0.56808,0.811148
0.510932,0.678686,0.565751,0.811067
0.509348,0.679327,0.563432,0.810986
0.507769,0.679969,0.561122,0.810905
0.506195,0.680612,0.558821,0.810824
0.504626,0.681255,0.55653,0.810743
0.503062,0.681898,0.554249,0.810662
0.501503,0.682543,0.551977,0.810581
0.499948,0.683187,0.549714,0.8105
0.498399,0.683833,0.54746,0.810418
0.496854,0.684479,0.545216,0.810337
0.495314,0.685126,0.542981,0.810256
0.493778,0.685773,0.540755,0.810175
0.492248,0.686421,0.538538,0.810094
0.490722,0.687069,0.53633,0.810013
0.489201,0.687718,0.534131,0.809932
0.487685,0.688368,0.531942,0.809851
0.486173,0.689018,0.529761,0.80977
0.484666,0.689669,0.527589,0.809689
0.483164,0.690321,0.525426,0.809608
0.481666,0.690973,0.523272,0.809527
0.480173,0.691626,0.521127,0.809447
0.478684,0.692279,0.51899,0.809366
0.477201,0.692933,0.516863,0.809285
0.475722,0.693588,0.514744,0.809204
0.474247,0.694243,0.512634,0.809123
0.472777,0.694899,0.510532,0.809042
0.471311,0.695556,0.508439,0.808961
0.469851,0.696213,0.506355,0.80888
0.468394,0.696871,0.504279,0.808799
0.466942,0.697529,0.502211,0.808718
0.465495,0.698188,0.500153,0.808637
0.464052,0.698848,0.498102,0.808557
0.462614,0.699508,0.49606,0.808476
0.46118,0.700169,0.494027,0.808395
0.45975,0.70083,0.492001,0.808314
0.458325,0.701492,0.489984,0.808233
0.456904,0.702155,0.487975,0.808152
0.455488,0.702818,0.485975,0.808072
0.454076,0.703482,0.483983,0.807991
0.452669,0.704147,0.481999,0.80791
0.451266,0.704812,0.480023,0.807829
0.449867,0.705478,0.478055,0.807748
0.448472,0.706145,0.476095,0.807668
0.447082,0.706812,0.474143,0.807587
0.445696,0.707479,0.472199,0.807506
0.444315,0.708148,0.470263,0.807425
0.442938,0.708817,0.468335,0.807345
0.441565,0.709487,0.466415,0.807264
0.440196,0.710157,0.464503,0.807183
0.438831,0.710828,0.462599,0.807102
0.437471,0.711499,0.460703,0.807022
0.436115,0.712172,0.458814,0.806941
0.434763,0.712844,0.456933,0.80686
0.433416,0.713518,0.45506,0.80678
0.432072,0.714192,0.453194,0.806699
0.430733,0.714867,0.451336,0.806618
0.429398,0.715542,0.449486,0.806538
0.428067,0.716218,0.447643,0.806457
0.42674,0.716895,0.445808,0.806376
0.425417,0.717572,0.44398,0.806296
0.424098,0.71825,0.44216,0.806215
0.422784,0.718928,0.440348,0.806134
0.421473,0.719608,0.438542,0.806054
0.420167,0.720288,0.436745,0.805973
0.418865,0.720968,0.434954,0.805893
0.417566,0.721649,0.433171,0.805812
0.416272,0.722331,0.431395,0.805731
0.414982,0.723013,0.429627,0.805651
0.413695,0.723696,0.427865,0.80557
0.412413,0.72438,0.426111,0.80549
0.411135,0.725065,0.424364,0.805409
0.40986,0.72575,0.422625,0.805329
0.40859,0.726435,0.420892,0.805248
0.407323,0.727122,0.419166,0.805168
0.406061,0.727808,0.417448,0.805087
0.404802,0.728496,0.415737,0.805007
0.403547,0.729184,0.414032,0.804926
0.402296,0.729873,0.412335,0.804846
0.401049,0.730563,0.410645,0.804765
0.399806,0.731253,0.408961,0.804685
0.398567,0.731944,0.407285,0.804604
0.397331,0.732635,0.405615,0.804524
0.3961,0.733328,0.403952,0.804443
0.394872,0.73402,0.402296,0.804363
0.393648,0.734714,0.400647,0.804282
0.392428,0.735408,0.399004,0.804202
0.391211,0.736103,0.397368,0.804121
0.389999,0.736798,0.395739,0.804041
0.38879,0.737494,0.394117,0.803961
0.387585,0.738191,0.392501,0.80388
0.386383,0.738888,0.390892,0.8038
0.385186,0.739586,0.38929,0.803719
0.383992,0.740285,0.387694,0.803639
0.382802,0.740985,0.386104,0.803559
0.381615,0.741685,0.384521,0.803478
0.380432,0.742385,0.382945,0.803398
0.379253,0.743087,0.381375,0.803318
0.378077,0.743789,0.379812,0.803237
0.376905,0.744491,0.378255,0.803157
0.375737,0.745195,0.376704,0.803077
0.374572,0.745899,0.37516,0.802996
0.373411,0.746604,0.373622,0.802916
0.372254,0.747309,0.37209,0.802836
0.3711,0.748015,0.370564,0.802756
0.371063,0.747974,0.370527,0.802675
0.371026,0.747932,0.37049,0.802595
0.370989,0.747891,0.370453,0.802515
0.370952,0.74785,0.370416,0.802435
0.370914,0.747809,0.370379,0.802354
0.370877,0.747767,0.370342,0.802274
0.37084,0.747726,0.370305,0.802194
0.370803,0.747685,0.370268,0.802114
0.370766,0.747643,0.370231,0.802033
0.370729,0.747602,0.370194,0.801953
0.370692,0.747561,0.370157,0.801873
0.370655,0.74752,0.37012,0.801793
0.370618,0.747478,0.370083,0.801713
0.370581,0.747437,0.370046,0.801632
0.370544,0.747396,0.370009,0.801552
0.370507,0.747355,0.369972,0.801472
0.37047,0.747313,0.369935,0.801392
0.370433,0.747272,0.369898,0.801312
0.370396,0.747231,0.369861,0.801232
0.370358,0.74719,0.369824,0.801152
0.370321,0.747148,0.369787,0.801071
0.370284,0.747107,0.36975,0.800991
0.370247,0.747066,0.369713,0.800911
0.37021,0.747025,0.369676,0.800831
0.370173,0.746984,0.369639,0.800751
0.370136,0.746942,0.369602,0.800671
0.370099,0.746901,0.369565,0.800591
0.370062,0.74686,0.369528,0.800511
0.370025,0.746819,0.369491,0.800431
0.369988,0.746777,0.369454,0.800351
0.369951,0.746736,0.369417,0.800271
0.369914,0.746695,0.36938,0.800191
0.369877,0.746654,0.369344,0.800111
0.36984,0.746613,0.369307,0.800031
0.369803,0.746571,0.36927,0.799951
0.369766,0.74653,0.369233,0.799871
0.369729,0.746489,0.369196,0.799791
0.369692,0.746448,0.369159,0.799711
0.369655,0.746407,0.369122,0.799631
0.369618,0.746365,0.369085,0.799551
0.369582,0.746324,0.369048,0.799471
0.369545,0.746283,0.369011,0.799391
0.369508,0.746242,0.368974,0.799311
0.369471,0.746201,0.368937,0.799231
0.369434,0.746159,0.368901,0.799151
0.369397,0.746118,0.368864,0.799071
0.36936,0.746077,0.368827,0.798991
0.369323,0.746036,0.36879,0.798911
0.369286,0.745995,0.368753,0.798831
0.369249,0.745954,0.368716,0.798752
0.369212,0.745912,0.368679,0.798672
0.369175,0.745871,0.368642,0.798592
0.369138,0.74583,0.368606,0.798512
0.369101,0.745789,0.368569,0.798432
0.369064,0.745748,0.368532,0.798352
0.369028,0.745707,0.368495,0.798272
0.368991,0.745665,0.368458,0.798193
0.368954,0.745624,0.368421,0.798113
0.368917,0.745583,0.368384,0.798033
0.36888,0.745542,0.368348,0.797953
0.368843,0.745501,0.368311,0.797873
0.368806,0.74546,0.368274,0.797794
0.368769,0.745419,0.368237,0.797714
0.368732,0.745377,0.3682,0.797634
0.368696,0.745336,0.368163,0.797554
0.368659,0.745295,0.368127,0.797475
0.368622,0.745254,0.36809,0.797395
0.368585,0.745213,0.368053,0.797315
0.368548,0.745172,0.368016,0.797235
0.368511,0.745131,0.367979,0.797156
0.368474,0.74509,0.367943,0.797076
0.368438,0.745048,0.367906,0.796996
0.368401,0.745007,0.367869,0.796916
0.368364,0.744966,0.367832,0.796837
0.368327,0.744925,0.367795,0.796757
0.36829,0.744884,0.367759,0.796677
0.368253,0.744843,0.367722,0.796598
0.368217,0.744802,0.367685,0.796518
0.36818,0.744761,0.367648,0.796438
0.368143,0.74472,0.367612,0.796359
0.368106,0.744678,0.367575,0.796279
0.368069,0.744637,0.367538,0.7962
0.368032,0.744596,0.367501,0.79612
0.367996,0.744555,0.367465,0.79604
0.367959,0.744514,0.367428,0.795961
0.367922,0.744473,0.367391,0.795881
0.367885,0.744432,0.367354,0.795802
0.367848,0.744391,0.367318,0.795722
0.367812,0.74435,0.367281,0.795642
0.367775,0.744309,0.367244,0.795563
0.367738,0.744268,0.367207,0.795483
0.367701,0.744226,0.367171,0.795404
0.367665,0.744185,0.367134,0.795324
0.367628,0.744144,0.367097,0.795245
0.367591,0.744103,0.367061,0.795165
0.367554,0.744062,0.367024,0.795086
0.367518,0.744021,0.366987,0.795006
0.367481,0.74398,0.36695,0.794927
0.367444,0.743939,0.366914,0.794847
0.367407,0.743898,0.366877,0.794768
0.367371,0.743857,0.36684,0.794688
0.367334,0.743816,0.366804,0.794609
0.367297,0.743775,0.366767,0.794529
0.36726,0.743734,0.36673,0.79445
0.367224,0.743693,0.366694,0.79437
0.367187,0.743652,0.366657,0.794291
0.36715,0.743611,0.36662,0.794211
0.367113,0.74357,0.366584,0.794132
0.367077,0.743529,0.366547,0.794053
0.36704,0.743488,0.36651,0.793973
0.367003,0.743446,0.366474,0.793894
0.366967,0.743405,0.366437,0.793814
0.36693,0.743364,0.3664,0.793735
0.366893,0.743323,0.366364,0.793656
0.366857,0.743282,0.366327,0.793576
0.36682,0.743241,0.366291,0.793497
0.366783,0.7432,0.366254,0.793418
0.366747,0.743159,0.366217,0.793338
0.36671,0.743118,0.366181,0.793259
0.366673,0.743077,0.366144,0.79318
0.366637,0.743036,0.366107,0.7931
0.3666,0.742995,0.366071,0.793021
0.366563,0.742954,0.366034,0.792942
0.366527,0.742913,0.365998,0.792862
0.36649,0.742872,0.365961,0.792783
0.366453,0.742831,0.365924,0.792704
0.366417,0.74279,0.365888,0.792625
0.36638,0.742749,0.365851,0.792545
0.366343,0.742708,0.365815,0.792466
0.366307,0.742667,0.365778,0.792387
0.36627,0.742626,0.365741,0.792308
0.366233,0.742585,0.365705,0.792228
0.366197,0.742544,0.365668,0.792149
0.36616,0.742503,0.365632,0.79207
0.366124,0.742462,0.365595,0.791991
0.366087,0.742421,0.365559,0.791911
0.36605,0.74238,0.365522,0.791832
0.366014,0.742339,0.365486,0.791753
0.365977,0.742298,0.365449,0.791674
0.365941,0.742258,0.365412,0.791595
0.365904,0.742217,0.365376,0.791516
0.365867,0.742176,0.365339,0.791436
0.365831,0.742135,0.365303,0.791357
0.365794,0.742094,0.365266,0.791278
0.365758,0.742053,0.36523,0.791199
0.365721,0.742012,0.365193,0.79112
0.365684,0.741971,0.365157,0.791041
0.365648,0.74193,0.36512,0.790962
0.365611,0.741889,0.365084,0.790883
0.365575,0.741848,0.365047,0.790803
0.365538,0.741807,0.365011,0.790724
0.365502,0.741766,0.364974,0.790645
0.365465,0.741725,0.364938,0.790566
0.365429,0.741684,0.364901,0.790487
0.365392,0.741643,0.364865,0.790408
0.365355,0.741602,0.364828,0.790329
0.365319,0.741561,0.364792,0.79025
0.365282,0.74152,0.364755,0.790171
0.365246,0.74148,0.364719,0.790092
0.365209,0.741439,0.364682,0.790013
0.365173,0.741398,0.364646,0.789934
0.365136,0.741357,0.364609,0.789855
0.3651,0.741316,0.364573,0.789776
0.365063,0.741275,0.364536,0.789697
0.365027,0.741234,0.3645,0.789618
0.36499,0.741193,0.364464,0.789539
0.364954,0.741152,0.364427,0.78946
0.364917,0.741111,0.364391,0.789381
0.364881,0.74107,0.364354,0.789302
0.364844,0.74103,0.364318,0.789223
0.364808,0.740989,0.364281,0.789144
0.364771,0.740948,0.364245,0.789066
0.364735,0.740907,0.364208,0.788987
0.364698,0.740866,0.364172,0.788908
0.364662,0.740825,0.364136,0.788829
0.364625,0.740784,0.364099,0.78875
0.364589,0.740743,0.364063,0.788671
0.364553,0.740702,0.364026,0.788592
0.364516,0.740662,0.36399,0.788513
0.36448,0.740621,0.363954,0.788435
0.364443,0.74058,0.363917,0.788356
0.364407,0.740539,0.363881,0.788277
0.36437,0.740498,0.363844,0.788198
0.364334,0.740457,0.363808,0.788119
0.364297,0.740416,0.363772,0.78804
0.364261,0.740375,0.363735,0.787962
0.364225,0.740335,0.363699,0.787883
0.364188,0.740294,0.363663,0.787804
0.364152,0.740253,0.363626,0.787725
0.364115,0.740212,0.36359,0.787646
0.364079,0.740171,0.363553,0.787568
0.364042,0.74013,0.363517,0.787489
0.364006,0.74009,0.363481,0.78741
0.36397,0.740049,0.363444,0.787331
0.363933,0.740008,0.363408,0.787253
0.363897,0.739967,0.363372,0.787174
0.36386,0.739926,0.363335,0.787095
0.363824,0.739885,0.363299,0.787017
0.363788,0.739844,0.363263,0.786938
0.363751,0.739804,0.363226,0.786859
0.363715,0.739763,0.36319,0.78678
0.363679,0.739722,0.363154,0.786702
0.363642,0.739681,0.363117,0.786623
0.363606,0.73964,0.363081,0.786544
0.36357,0.7396,0.363045,0.786466
0.363533,0.739559,0.363009,0.786387
0.363497,0.739518,0.362972,0.786309
0.36346,0.739477,0.362936,0.78623
0.363424,0.739436,0.3629,0.786151
0.363388,0.739395,0.362863,0.786073
0.363351,0.739355,0.362827,0.785994
0.363315,0.739314,0.362791,0.785915
0.363279,0.739273,0.362754,0.785837
0.363242,0.739232,0.362718,0.785758
0.363206,0.739191,0.362682,0.78568
0.36317,0.739151,0.362646,0.785601
0.363133,0.73911,0.362609,0.785523
0.363097,0.739069,0.362573,0.785444
0.363061,0.739028,0.362537,0.785365
0.363025,0.738987,0.362501,0.785287
0.362988,0.738947,0.362464,0.785208
0.362952,0.738906,0.362428,0.78513
0.362916,0.738865,0.362392,0.785051
0.362879,0.738824,0.362356,0.784973
0.362843,0.738784,0.362319,0.784894
0.362807,0.738743,0.362283,0.784816
0.36277,0.738702,0.362247,0.784737
0.362734,0.738661,0.362211,0.784659
0.362698,0.738621,0.362175,0.78458
0.362662,0.73858,0.362138,0.784502
0.362625,0.738539,0.362102,0.784424
0.362589,0.738498,0.362066,0.784345
0.362553,0.738457,0.36203,0.784267
0.362517,0.738417,0.361993,0.784188
0.36248,0.738376,0.361957,0.78411
0.362444,0.738335,0.361921,0.784031
0.362408,0.738294,0.361885,0.783953
0.362372,0.738254,0.361849,0.783875
0.362335,0.738213,0.361813,0.783796
0.362299,0.738172,0.361776,0.783718
0.362263,0.738131,0.36174,0.783639
0.362227,0.738091,0.361704,0.783561
0.36219,0.73805,0.361668,0.783483
0.362154,0.738009,0.361632,0.783404
0.362118,0.737969,0.361595,0.783326
0.362082,0.737928,0.361559,0.783248
0.362046,0.737887,0.361523,0.783169
0.362009,0.737846,0.361487,0.783091
0.361973,0.737806,0.361451,0.783013
0.361937,0.737765,0.361415,0.782934
0.361901,0.737724,0.361379,0.782856
0.361865,0.737684,0.361342,0.782778
0.361828,0.737643,0.361306,0.7827
0.361792,0.737602,0.36127,0.782621
0.361756,0.737561,0.361234,0.782543
0.36172,0.737521,0.361198,0.782465
0.361684,0.73748,0.361162,0.782387
0.361648,0.737439,0.361126,0.782308
0.361611,0.737399,0.36109,0.78223
0.361575,0.737358,0.361053,0.782152
0.361539,0.737317,0.361017,0.782074
0.361503,0.737276,0.360981,0.781995
0.361467,0.737236,0.360945,0.781917
0.361431,0.737195,0.360909,0.781839
0.361395,0.737154,0.360873,0.781761
0.361358,0.737114,0.360837,0.781683
0.361322,0.737073,0.360801,0.781605
0.361286,0.737032,0.360765,0.781526
0.36125,0.736992,0.360729,0.781448
0.361214,0.736951,0.360693,0.78137
0.361178,0.73691,0.360657,0.781292
0.361142,0.73687,0.36062,0.781214
0.361105,0.736829,0.360584,0.781136
0.361069,0.736788,0.360548,0.781058
0.361033,0.736748,0.360512,0.780979
0.360997,0.736707,0.360476,0.780901
0.360961,0.736666,0.36044,0.780823
0.360925,0.736626,0.360404,0.780745
0.360889,0.736585,0.360368,0.780667
0.360853,0.736544,0.360332,0.780589
0.360817,0.736504,0.360296,0.780511
0.360781,0.736463,0.36026,0.780433
0.360745,0.736422,0.360224,0.780355
0.360708,0.736382,0.360188,0.780277
0.360672,0.736341,0.360152,0.780199
0.360636,0.736301,0.360116,0.780121
0.3606,0.73626,0.36008,0.780043
0.360564,0.736219,0.360044,0.779965
0.360528,0.736179,0.360008,0.779887
0.360492,0.736138,0.359972,0.779809
0.360456,0.736097,0.359936,0.779731
0.36042,0.736057,0.3599,0.779653
0.360384,0.736016,0.359864,0.779575
0.360348,0.735976,0.359828,0.779497
0.360312,0.735935,0.359792,0.779419
0.360276,0.735894,0.359756,0.779341
0.36024,0.735854,0.35972,0.779263
0.360204,0.735813,0.359684,0.779185
0.360168,0.735772,0.359648,0.779107
0.360132,0.735732,0.359612,0.779029
0.360096,0.735691,0.359576,0.778951
0.36006,0.735651,0.35954,0.778874
0.360024,0.73561,0.359504,0.778796
0.359988,0.735569,0.359468,0.778718
