energy,productivity,fun,hunger
0.58213,0.595898,0.597509,0.639678
0.582071,0.595849,0.615373,0.639614
0.581722,0.5958,0.63377,0.63955
0.581373,0.595752,0.652718,0.639486
0.581024,0.595703,0.672232,0.639422
0.580676,0.595654,0.69233,0.639358
0.580327,0.595605,0.713029,0.639294
0.579979,0.595557,0.734346,0.639231
0.579631,0.595508,0.734273,0.639167
0.579283,0.595459,0.734199,0.639103
0.578936,0.595411,0.734126,0.639039
0.578589,0.595362,0.734053,0.638975
0.578241,0.595313,0.733979,0.638911
0.577895,0.595265,0.733906,0.638847
0.577548,0.595216,0.733832,0.638783
0.577201,0.595167,0.733759,0.638719
0.576855,0.595118,0.733686,0.638655
0.576509,0.59507,0.733612,0.638592
0.576163,0.595021,0.733539,0.638528
0.575817,0.594973,0.733466,0.638464
0.575472,0.594924,0.733392,0.6384
0.575127,0.594875,0.733319,0.638336
0.574782,0.594827,0.733245,0.638272
0.574437,0.594778,0.733172,0.638209
0.574092,0.594729,0.733099,0.638145
0.573748,0.594681,0.733026,0.638081
0.573404,0.594632,0.732952,0.638017
0.57306,0.594583,0.732879,0.637953
0.572716,0.594535,0.732806,0.637889
0.572372,0.594486,0.732732,0.637826
0.572029,0.594438,0.732659,0.637762
0.571686,0.594389,0.732586,0.637698
0.571343,0.59434,0.732513,0.637634
0.571,0.594292,0.732439,0.637571
0.570657,0.594243,0.732366,0.637507
0.570315,0.594195,0.732293,0.637443
0.569973,0.594146,0.73222,0.637379
0.569631,0.594097,0.732146,0.637316
0.569289,0.594049,0.732073,0.637252
0.568947,0.594,0.732,0.637188
0.568606,0.593952,0.731927,0.637124
0.568265,0.593903,0.731854,0.637061
0.567924,0.593855,0.73178,0.636997
0.567583,0.593806,0.731707,0.636933
0.567243,0.593757,0.731634,0.63687
0.566902,0.593709,0.731561,0.636806
0.566562,0.59366,0.731488,0.636742
0.566222,0.593612,0.731415,0.636679
0.565883,0.593563,0.731341,0.636615
0.565543,0.593515,0.731268,0.636551
0.565204,0.593466,0.731195,0.636488
0.564865,0.593418,0.731122,0.636424
0.564526,0.593369,0.731049,0.63636
0.564187,0.593321,0.730976,0.636297
0.563849,0.593272,0.730903,0.636233
0.56351,0.593224,0.73083,0.636169
0.563172,0.593175,0.730757,0.636106
0.562835,0.593127,0.730683,0.636042
0.562497,0.593078,0.73061,0.635979
0.562159,0.59303,0.730537,0.635915
0.561822,0.592981,0.730464,0.635851
0.561485,0.592933,0.730391,0.635788
0.561148,0.592884,0.730318,0.635724
0.560812,0.592836,0.730245,0.635661
0.560475,0.592787,0.730172,0.635597
0.560139,0.592739,0.730099,0.635534
0.559803,0.59269,0.730026,0.63547
0.559467,0.592642,0.729953,0.635406
0.559131,0.592593,0.72988,0.635343
0.558796,0.592545,0.729807,0.635279
0.558461,0.592496,0.729734,0.635216
0.558125,0.592448,0.729661,0.635152
0.557791,0.592399,0.729588,0.635089
0.557456,0.592351,0.729515,0.635025
0.5574,0.592303,0.729442,0.634962
0.557345,0.592254,0.729369,0.634898
0.557289,0.592206,0.729296,0.634835
0.557233,0.592157,0.729224,0.634771
0.557177,0.592109,0.729151,0.634708
0.557122,0.59206,0.729078,0.634644
0.557066,0.592012,0.729005,0.634581
0.55701,0.591964,0.728932,0.634517
0.556954,0.591915,0.728859,0.634454
0.556899,0.591867,0.728786,0.634391
0.556843,0.591818,0.728713,0.634327
0.556787,0.59177,0.72864,0.634264
0.556732,0.591722,0.728567,0.6342
0.556676,0.591673,0.728495,0.634137
0.55662,0.591625,0.728422,0.634073
0.556565,0.591576,0.728349,0.63401
0.556509,0.591528,0.728276,0.633947
0.556453,0.59148,0.728203,0.633883
0.556398,0.591431,0.72813,0.63382
0.556342,0.591383,0.728058,0.633756
0.556287,0.591335,0.727985,0.633693
0.556231,0.591286,0.727912,0.63363
0.556175,0.591238,0.727839,0.633566
0.55612,0.59119,0.727766,0.633503
0.556064,0.591141,0.727694,0.63344
0.556008,0.591093,0.727621,0.633376
0.555953,0.591045,0.727548,0.633313
0.555897,0.590996,0.727475,0.63325
0.555842,0.590948,0.727403,0.633186
0.555786,0.5909,0.72733,0.633123
0.55573,0.590851,0.727257,0.63306
0.555675,0.590803,0.727184,0.632996
0.555619,0.590755,0.727112,0.632933
0.555564,0.590706,0.727039,0.63287
0.555508,0.590658,0.726966,0.632806
0.555453,0.59061,0.726894,0.632743
0.555397,0.590561,0.726821,0.63268
0.555342,0.590513,0.726748,0.632617
0.555286,0.590465,0.726676,0.632553
0.555231,0.590417,0.726603,0.63249
0.555175,0.590368,0.72653,0.632427
0.555119,0.59032,0.726458,0.632364
0.555064,0.590272,0.726385,0.6323
0.555008,0.590223,0.726312,0.632237
0.554953,0.590175,0.72624,0.632174
0.554897,0.590127,0.726167,0.632111
0.554842,0.590079,0.726094,0.632048
0.554786,0.59003,0.726022,0.631984
0.554731,0.589982,0.725949,0.631921
0.554676,0.589934,0.725877,0.631858
0.55462,0.589886,0.725804,0.631795
0.554565,0.589837,0.725731,0.631732
0.554509,0.589789,0.725659,0.631668
0.554454,0.589741,0.725586,0.631605
0.554398,0.589693,0.725514,0.631542
0.554343,0.589644,0.725441,0.631479
0.554287,0.589596,0.725369,0.631416
0.554232,0.589548,0.725296,0.631353
0.554177,0.5895,0.725224,0.631289
0.554121,0.589452,0.725151,0.631226
0.554066,0.589403,0.725079,0.631163
0.55401,0.589355,0.725006,0.6311
0.553955,0.589307,0.724934,0.631037
0.553899,0.589259,0.724861,0.630974
0.553844,0.589211,0.724789,0.630911
0.553789,0.589162,0.724716,0.630848
0.553733,0.589114,0.724644,0.630785
0.553678,0.589066,0.724571,0.630722
0.553623,0.589018,0.724499,0.630658
0.553567,0.58897,0.724426,0.630595
0.553512,0.588922,0.724354,0.630532
0.553457,0.588873,0.724281,0.630469
0.553401,0.588825,0.724209,0.630406
0.553346,0.588777,0.724137,0.630343
0.553291,0.588729,0.724064,0.63028
0.553235,0.588681,0.723992,0.630217
0.55318,0.588633,0.723919,0.630154
0.553125,0.588585,0.723847,0.630091
0.553069,0.588536,0.723775,0.630028
0.553014,0.588488,0.723702,0.629965
0.552959,0.58844,0.72363,0.629902
0.552903,0.588392,0.723557,0.629839
0.552848,0.588344,0.723485,0.629776
0.552793,0.588296,0.723413,0.629713
0.552737,0.588248,0.72334,0.62965
0.552682,0.5882,0.723268,0.629587
0.552627,0.588152,0.723196,0.629524
0.552572,0.588104,0.723123,0.629461
0.552516,0.588055,0.723051,0.629398
0.552461,0.588007,0.722979,0.629335
0.552406,0.587959,0.722906,0.629272
0.552351,0.587911,0.722834,0.62921
0.552295,0.587863,0.722762,0.629147
0.55224,0.587815,0.72269,0.629084
0.552185,0.587767,0.722617,0.629021
0.55213,0.587719,0.722545,0.628958
0.552075,0.587671,0.722473,0.628895
0.552019,0.587623,0.722401,0.628832
0.551964,0.587575,0.722328,0.628769
0.551909,0.587527,0.722256,0.628706
0.551854,0.587479,0.722184,0.628643
0.551799,0.587431,0.722112,0.628581
0.551743,0.587383,0.722039,0.628518
0.551688,0.587335,0.721967,0.628455
0.551633,0.587286,0.721895,0.628392
0.551578,0.587238,0.721823,0.628329
0.551523,0.58719,0.721751,0.628266
0.551468,0.587142,0.721679,0.628204
0.551412,0.587094,0.721606,0.628141
0.551357,0.587046,0.721534,0.628078
0.551302,0.586998,0.721462,0.628015
0.551247,0.58695,0.72139,0.627952
0.551192,0.586902,0.721318,0.62789
0.551137,0.586854,0.721246,0.627827
0.551082,0.586806,0.721173,0.627764
0.551027,0.586758,0.721101,0.627701
0.550971,0.58671,0.721029,0.627638
0.550916,0.586662,0.720957,0.627576
0.550861,0.586615,0.720885,0.627513
0.550806,0.586567,0.720813,0.62745
0.550751,0.586519,0.720741,0.627387
0.550696,0.586471,0.720669,0.627325
0.550641,0.586423,0.720597,0.627262
0.550586,0.586375,0.720525,0.627199
0.550531,0.586327,0.720453,0.627136
0.550476,0.586279,0.720381,0.627074
0.550421,0.586231,0.720309,0.627011
0.550366,0.586183,0.720237,0.626948
0.550311,0.586135,0.720164,0.626886
0.550256,0.586087,0.720092,0.626823
0.550201,0.586039,0.72002,0.62676
0.550146,0.585991,0.719948,0.626698
0.550091,0.585943,0.719876,0.626635
0.550036,0.585895,0.719804,0.626572
0.549981,0.585847,0.719733,0.62651
0.549926,0.5858,0.719661,0.626447
0.549871,0.585752,0.719589,0.626384
0.549816,0.585704,0.719517,0.626322
0.549761,0.585656,0.719445,0.626259
0.549706,0.585608,0.719373,0.626196
0.549651,0.58556,0.719301,0.626134
0.549596,0.585512,0.719229,0.626071
0.549541,0.585464,0.719157,0.626009
0.549486,0.585416,0.719085,0.625946
0.549431,0.585369,0.719013,0.625883
0.549376,0.585321,0.718941,0.625821
0.549321,0.585273,0.718869,0.625758
0.549266,0.585225,0.718797,0.625696
0.549211,0.585177,0.718726,0.625633
0.549156,0.585129,0.718654,0.625571
0.549101,0.585081,0.718582,0.625508
0.549046,0.585034,0.71851,0.625445
0.548991,0.584986,0.718438,0.625383
0.548937,0.584938,0.718366,0.62532
0.548882,0.58489,0.718294,0.625258
0.548827,0.584842,0.718223,0.625195
0.548772,0.584794,0.718151,0.625133
0.548717,0.584747,0.718079,0.62507
0.548662,0.584699,0.718007,0.625008
0.548607,0.584651,0.717935,0.624945
0.548552,0.584603,0.717864,0.624883
0.548498,0.584555,0.717792,0.62482
0.548443,0.584508,0.71772,0.624758
0.548388,0.58446,0.717648,0.624695
0.548333,0.584412,0.717576,0.624633
0.548278,0.584364,0.717505,0.62457
0.548223,0.584316,0.717433,0.624508
0.548169,0.584269,0.717361,0.624445
0.548114,0.584221,0.717289,0.624383
0.548059,0.584173,0.717218,0.624321
0.548004,0.584125,0.717146,0.624258
0.547949,0.584078,0.717074,0.624196
0.547894,0.58403,0.717003,0.624133
0.54784,0.583982,0.716931,0.624071
0.547785,0.583934,0.716859,0.624008
0.54773,0.583887,0.716787,0.623946
0.547675,0.583839,0.716716,0.623884
0.547621,0.583791,0.716644,0.623821
0.547566,0.583743,0.716572,0.623759
0.547511,0.583696,0.716501,0.623697
0.547456,0.583648,0.716429,0.623634
0.547402,0.5836,0.716358,0.623572
0.547347,0.583552,0.716286,0.623509
0.547292,0.583505,0.716214,0.623447
0.547237,0.583457,0.716143,0.623385
0.547183,0.583409,0.716071,0.623322
0.547128,0.583362,0.715999,0.62326
0.547073,0.583314,0.715928,0.623198
0.547019,0.583266,0.715856,0.623135
0.546964,0.583218,0.715785,0.623073
0.546909,0.583171,0.715713,0.623011
0.546854,0.583123,0.715641,0.622949
0.5468,0.583075,0.71557,0.622886
0.546745,0.583028,0.715498,0.622824
0.54669,0.58298,0.715427,0.622762
0.546636,0.582932,0.715355,0.622699
0.546581,0.582885,0.715284,0.622637
0.546526,0.582837,0.715212,0.622575
0.546472,0.582789,0.715141,0.622513
0.546417,0.582742,0.715069,0.62245
0.546362,0.582694,0.714998,0.622388
0.546308,0.582646,0.714926,0.622326
0.546253,0.582599,0.714855,0.622264
0.546199,0.582551,0.714783,0.622201
0.546144,0.582503,0.714712,0.622139
0.546089,0.582456,0.71464,0.622077
0.546035,0.582408,0.714569,0.622015
0.54598,0.582361,0.714497,0.621953
0.545926,0.582313,0.714426,0.62189
0.545871,0.582265,0.714354,0.621828
0.545816,0.582218,0.714283,0.621766
0.545762,0.58217,0.714212,0.621704
0.545707,0.582122,0.71414,0.621642
0.545653,0.582075,0.714069,0.621579
0.545598,0.582027,0.713997,0.621517
0.545543,0.58198,0.713926,0.621455
0.545489,0.581932,0.713855,0.621393
0.545434,0.581885,0.713783,0.621331
0.54538,0.581837,0.713712,0.621269
0.545325,0.581789,0.71364,0.621207
0.545271,0.581742,0.713569,0.621144
0.545216,0.581694,0.713498,0.621082
0.545162,0.581647,0.713426,0.62102
0.545107,0.581599,0.713355,0.620958
0.545053,0.581552,0.713284,0.620896
0.544998,0.581504,0.713212,0.620834
0.544944,0.581456,0.713141,0.620772
0.544889,0.581409,0.71307,0.62071
0.544835,0.581361,0.712998,0.620648
0.54478,0.581314,0.712927,0.620586
0.544726,0.581266,0.712856,0.620524
0.544671,0.581219,0.712785,0.620462
0.544617,0.581171,0.712713,0.6204
0.544562,0.581124,0.712642,0.620337
0.544508,0.581076,0.712571,0.620275
0.544453,0.581029,0.712499,0.620213
0.544399,0.580981,0.712428,0.620151
0.544345,0.580934,0.712357,0.620089
0.54429,0.580886,0.712286,0.620027
0.544236,0.580839,0.712214,0.619965
0.544181,0.580791,0.712143,0.619903
0.544127,0.580744,0.712072,0.619841
0.544072,0.580696,0.712001,0.619779
0.544018,0.580649,0.71193,0.619717
0.543964,0.580601,0.711858,0.619655
0.543909,0.580554,0.711787,0.619593
0.543855,0.580506,0.711716,0.619532
0.5438,0.580459,0.711645,0.61947
0.543746,0.580411,0.711574,0.619408
0.543692,0.580364,0.711503,0.619346
0.543637,0.580316,0.711431,0.619284
0.543583,0.580269,0.71136,0.619222
0.543529,0.580221,0.711289,0.61916
0.543474,0.580174,0.711218,0.619098
0.54342,0.580127,0.711147,0.619036
0.543366,0.580079,0.711076,0.618974
0.543311,0.580032,0.711005,0.618912
0.543257,0.579984,0.710934,0.61885
0.543203,0.579937,0.710862,0.618788
0.543148,0.579889,0.710791,0.618727
0.543094,0.579842,0.71072,0.618665
0.54304,0.579795,0.710649,0.618603
0.542985,0.579747,0.710578,0.618541
0.542931,0.5797,0.710507,0.618479
0.542877,0.579652,0.710436,0.618417
0.542822,0.579605,0.710365,0.618355
0.542768,0.579558,0.731603,0.618294
0.542443,0.57951,0.73153,0.618232
0.542117,0.579463,0.731457,0.61817
0.541792,0.579415,0.731383,0.618108
0.541467,0.579368,0.73131,0.618046
0.541142,0.579321,0.731237,0.617985
0.540817,0.579273,0.731164,0.617923
0.540493,0.579226,0.731091,0.617861
0.540169,0.579179,0.731018,0.617799
0.539844,0.579131,0.730945,0.617737
0.539521,0.579084,0.730872,0.617676
0.539197,0.579036,0.730798,0.617614
0.538873,0.578989,0.730725,0.617552
0.53855,0.578942,0.730652,0.61749
0.538227,0.578894,0.730579,0.617429
0.537904,0.578847,0.730506,0.617367
0.537581,0.5788,0.730433,0.617305
0.537259,0.578752,0.73036,0.617243
0.536937,0.578705,0.730287,0.617182
0.536614,0.578658,0.730214,0.61712
0.536292,0.57861,0.730141,0.617058
0.535971,0.578563,0.730068,0.616997
0.535649,0.578516,0.729995,0.616935
0.535328,0.578469,0.729922,0.616873
0.535007,0.578421,0.729849,0.616811
0.534686,0.578374,0.729776,0.61675
0.534365,0.578327,0.729703,0.616688
0.534044,0.578279,0.72963,0.616626
0.533724,0.578232,0.729557,0.616565
0.533404,0.578185,0.729484,0.616503
0.533084,0.578137,0.729411,0.616441
0.532764,0.57809,0.729338,0.61638
0.532444,0.578043,0.729265,0.616318
0.532125,0.577996,0.729192,0.616257
0.531806,0.577948,0.729119,0.616195
0.531486,0.577901,0.729047,0.616133
0.531168,0.577854,0.728974,0.616072
0.530849,0.577807,0.728901,0.61601
0.53053,0.577759,0.728828,0.615948
0.530212,0.577712,0.728755,0.615887
0.529894,0.577665,0.728682,0.615825
0.529576,0.577618,0.728609,0.615764
0.529258,0.57757,0.728536,0.615702
0.528941,0.577523,0.728464,0.615641
0.528624,0.577476,0.728391,0.615579
0.528306,0.577429,0.728318,0.615517
0.527989,0.577382,0.728245,0.615456
0.527673,0.577334,0.728172,0.615394
0.527356,0.577287,0.728099,0.615333
0.527303,0.57724,0.728027,0.615271
0.527251,0.577193,0.727954,0.61521
0.527198,0.577145,0.727881,0.615148
0.527145,0.577098,0.727808,0.615087
0.527092,0.577051,0.727735,0.615025
0.52704,0.577004,0.727663,0.614964
0.526987,0.576957,0.72759,0.614902
0.526934,0.57691,0.727517,0.614841
0.526882,0.576862,0.727444,0.614779
0.526829,0.576815,0.727372,0.614718
0.526776,0.576768,0.727299,0.614656
0.526724,0.576721,0.727226,0.614595
0.526671,0.576674,0.727153,0.614533
0.526618,0.576627,0.727081,0.614472
0.526566,0.576579,0.727008,0.61441
0.526513,0.576532,0.726935,0.614349
0.52646,0.576485,0.726863,0.614288
0.526408,0.576438,0.72679,0.614226
0.526355,0.576391,0.726717,0.614165
0.526302,0.576344,0.726645,0.614103
0.52625,0.576297,0.726572,0.614042
0.526197,0.576249,0.726499,0.61398
0.526144,0.576202,0.726427,0.613919
0.526092,0.576155,0.726354,0.613858
0.526039,0.576108,0.726281,0.613796
0.525987,0.576061,0.726209,0.613735
0.525934,0.576014,0.726136,0.613674
0.525881,0.575967,0.726063,0.613612
0.525829,0.57592,0.725991,0.613551
0.525776,0.575873,0.725918,0.613489
0.525724,0.575825,0.725846,0.613428
0.525671,0.575778,0.725773,0.613367
0.525619,0.575731,0.7257,0.613305
0.525566,0.575684,0.725628,0.613244
0.525513,0.575637,0.725555,0.613183
0.525461,0.57559,0.725483,0.613121
0.525408,0.575543,0.72541,0.61306
0.525356,0.575496,0.725338,0.612999
0.525303,0.575449,0.725265,0.612938
0.525251,0.575402,0.725193,0.612876
0.525198,0.575355,0.72512,0.612815
0.525146,0.575308,0.725048,0.612754
0.525093,0.575261,0.724975,0.612692
0.525041,0.575214,0.724903,0.612631
0.524988,0.575167,0.72483,0.61257
0.524936,0.57512,0.724758,0.612509
0.524883,0.575073,0.724685,0.612447
0.524831,0.575026,0.724613,0.612386
0.524778,0.574979,0.72454,0.612325
0.524726,0.574931,0.724468,0.612264
0.524673,0.574884,0.724395,0.612202
0.524621,0.574837,0.724323,0.612141
0.524568,0.57479,0.72425,0.61208
0.524516,0.574743,0.724178,0.612019
0.524463,0.574696,0.724106,0.611958
0.524411,0.574649,0.724033,0.611896
0.524359,0.574602,0.723961,0.611835
0.524306,0.574555,0.723888,0.611774
0.524254,0.574508,0.723816,0.611713
0.524201,0.574462,0.723744,0.611652
0.524149,0.574415,0.723671,0.61159
0.524096,0.574368,0.723599,0.611529
0.524044,0.574321,0.723527,0.611468
0.523992,0.574274,0.723454,0.611407
0.523939,0.574227,0.723382,0.611346
0.523887,0.57418,0.723309,0.611285
0.523834,0.574133,0.723237,0.611224
0.523782,0.574086,0.723165,0.611163
0.52373,0.574039,0.723093,0.611101
0.523677,0.573992,0.72302,0.61104
0.523625,0.573945,0.722948,0.610979
0.523573,0.573898,0.722876,0.610918
0.52352,0.573851,0.722803,0.610857
0.523468,0.573804,0.722731,0.610796
0.523416,0.573757,0.722659,0.610735
0.523363,0.57371,0.722587,0.610674
0.523311,0.573663,0.722514,0.610613
0.523259,0.573617,0.722442,0.610552
0.523206,0.57357,0.72237,0.610491
0.523154,0.573523,0.722298,0.61043
0.523102,0.573476,0.722225,0.610368
0.523049,0.573429,0.722153,0.610307
0.522997,0.573382,0.722081,0.610246
0.522945,0.573335,0.722009,0.610185
0.522892,0.573288,0.721936,0.610124
0.52284,0.573241,0.721864,0.610063
0.522788,0.573195,0.721792,0.610002
0.522735,0.573148,0.72172,0.609941
0.522683,0.573101,0.721648,0.60988
0.522631,0.573054,0.721576,0.609819
0.522579,0.573007,0.721503,0.609758
0.522526,0.57296,0.721431,0.609697
0.522474,0.572913,0.721359,0.609636
0.522422,0.572867,0.721287,0.609575
0.52237,0.57282,0.721215,0.609515
0.522317,0.572773,0.721143,0.609454
0.522265,0.572726,0.721071,0.609393
0.522213,0.572679,0.720998,0.609332
0.522161,0.572632,0.720926,0.609271
0.522109,0.572585,0.720854,0.60921
0.522056,0.572539,0.720782,0.609149
0.522004,0.572492,0.72071,0.609088
0.521952,0.572445,0.720638,0.609027
0.5219,0.572398,0.720566,0.608966
0.521848,0.572351,0.720494,0.608905
0.521795,0.572305,0.720422,0.608844
0.521743,0.572258,0.72035,0.608783
0.521691,0.572211,0.720278,0.608723
0.521639,0.572164,0.720206,0.608662
0.521587,0.572117,0.720134,0.608601
0.521535,0.572071,0.720062,0.60854
0.521482,0.572024,0.71999,0.608479
0.52143,0.571977,0.719918,0.608418
0.521378,0.57193,0.719846,0.608357
0.521326,0.571884,0.719774,0.608297
0.521274,0.571837,0.719702,0.608236
0.521222,0.57179,0.71963,0.608175
0.52117,0.571743,0.719558,0.608114
0.521117,0.571697,0.719486,0.608053
0.521065,0.57165,0.719414,0.607993
0.521013,0.571603,0.719342,0.607932
0.520961,0.571556,0.71927,0.607871
0.520909,0.57151,0.719198,0.60781
0.520857,0.571463,0.719126,0.607749
0.520805,0.571416,0.719054,0.607689
0.520753,0.571369,0.718982,0.607628
0.520701,0.571323,0.718911,0.607567
0.520649,0.571276,0.718839,0.607506
0.520597,0.571229,0.718767,0.607446
0.520544,0.571182,0.718695,0.607385
0.520492,0.571136,0.718623,0.607324
0.52044,0.571089,0.718551,0.607263
0.520388,0.571042,0.718479,0.607203
0.520336,0.570996,0.718407,0.607142
0.520284,0.570949,0.718336,0.607081
0.520232,0.570902,0.718264,0.60702
0.52018,0.570856,0.718192,0.60696
0.520128,0.570809,0.71812,0.606899
0.520076,0.570762,0.718048,0.606838
0.520024,0.570716,0.717976,0.606778
0.519972,0.570669,0.717905,0.606717
0.51992,0.570622,0.717833,0.606656
0.519868,0.570576,0.717761,0.606596
0.519816,0.570529,0.717689,0.606535
0.519764,0.570482,0.717618,0.606474
0.519712,0.570436,0.717546,0.606414
0.51966,0.570389,0.717474,0.606353
0.519608,0.570342,0.717402,0.606292
0.519556,0.570296,0.717331,0.606232
0.519504,0.570249,0.717259,0.606171
0.519452,0.570202,0.717187,0.606111
0.5194,0.570156,0.717115,0.60605
0.519349,0.570109,0.717044,0.605989
0.519297,0.570063,0.716972,0.605929
0.519245,0.570016,0.7169,0.605868
0.519193,0.569969,0.716829,0.605808
0.519141,0.569923,0.716757,0.605747
0.519089,0.569876,0.716685,0.605686
0.519037,0.56983,0.716614,0.605626
0.518985,0.569783,0.716542,0.605565
0.518933,0.569736,0.71647,0.605505
0.518881,0.56969,0.716399,0.605444
0.518829,0.569643,0.716327,0.605384
0.518778,0.569597,0.716255,0.605323
0.518726,0.56955,0.716184,0.605263
0.518674,0.569503,0.716112,0.605202
0.518622,0.569457,0.71604,0.605142
0.51857,0.56941,0.715969,0.605081
0.518518,0.569364,0.715897,0.605021
0.518466,0.569317,0.715826,0.60496
0.518415,0.569271,0.715754,0.6049
0.518363,0.569224,0.715683,0.604839
