energy,productivity,fun,hunger
0.591632,0.542332,0.918113,0.678624
0.591572,0.542304,0.918021,0.678556
0.591513,0.542275,0.917929,0.678489
0.591454,0.542246,0.917837,0.678421
0.591395,0.542217,0.917746,0.678353
0.591336,0.542189,0.917654,0.678285
0.591277,0.54216,0.917562,0.678217
0.591218,0.542131,0.91747,0.678149
0.591158,0.542103,0.917379,0.678082
0.591099,0.542074,0.917287,0.678014
0.59104,0.542045,0.917195,0.677946
0.590981,0.542017,0.917103,0.677878
0.590922,0.541988,0.917012,0.67781
0.590863,0.541959,0.91692,0.677743
0.590804,0.541931,0.916828,0.677675
0.590745,0.541902,0.916737,0.677607
0.590686,0.541873,0.916645,0.677539
0.590627,0.541845,0.916553,0.677471
0.590568,0.541816,0.916462,0.677404
0.590509,0.541787,0.91637,0.677336
0.590449,0.541759,0.916278,0.677268
0.59039,0.54173,0.916187,0.677201
0.590331,0.541701,0.916095,0.677133
0.590272,0.541673,0.916003,0.677065
0.590213,0.541644,0.915912,0.676997
0.590154,0.541615,0.91582,0.67693
0.590095,0.541587,0.915729,0.676862
0.590036,0.541558,0.915637,0.676794
0.589977,0.541529,0.915546,0.676727
0.589918,0.541501,0.915454,0.676659
0.589859,0.541472,0.915362,0.676591
0.5898,0.541443,0.915271,0.676524
0.589741,0.541415,0.915179,0.676456
0.589682,0.541386,0.915088,0.676388
0.589623,0.541357,0.914996,0.676321
0.589564,0.541329,0.914905,0.676253
0.589505,0.5413,0.914813,0.676185
0.589446,0.541271,0.914722,0.676118
0.589388,0.541243,0.91463,0.67605
0.589329,0.541214,0.914539,0.675983
0.58927,0.541186,0.914448,0.675915
0.589211,0.541157,0.914356,0.675847
0.589152,0.541128,0.914265,0.67578
0.589093,0.5411,0.914173,0.675712
0.589034,0.541071,0.914082,0.675645
0.588975,0.541042,0.91399,0.675577
0.588916,0.541014,0.913899,0.67551
0.588857,0.540985,0.913808,0.675442
0.588798,0.540957,0.913716,0.675374
0.58874,0.540928,0.913625,0.675307
0.588681,0.540899,0.913533,0.675239
0.588622,0.540871,0.913442,0.675172
0.588563,0.540842,0.913351,0.675104
0.588504,0.540813,0.913259,0.675037
0.588445,0.540785,0.913168,0.674969
0.588386,0.540756,0.913077,0.674902
0.588328,0.540728,0.912986,0.674834
0.588269,0.540699,0.912894,0.674767
0.58821,0.54067,0.912803,0.674699
0.588151,0.540642,0.912712,0.674632
0.588092,0.540613,0.91262,0.674564
0.588033,0.540585,0.912529,0.674497
0.587975,0.540556,0.912438,0.67443
0.587916,0.540527,0.912347,0.674362
0.587857,0.540499,0.912255,0.674295
0.587798,0.54047,0.912164,0.674227
0.587739,0.540442,0.912073,0.67416
0.587681,0.540413,0.911982,0.674092
0.587622,0.540384,0.911891,0.674025
0.587563,0.540356,0.911799,0.673958
0.587504,0.540327,0.911708,0.67389
0.587446,0.540299,0.911617,0.673823
0.587387,0.54027,0.911526,0.673755
0.587328,0.540241,0.911435,0.673688
0.587269,0.540213,0.911344,0.673621
0.587211,0.540184,0.911252,0.673553
0.587152,0.540156,0.911161,0.673486
0.587093,0.540127,0.91107,0.673419
0.587035,0.540098,0.910979,0.673351
0.586976,0.54007,0.910888,0.673284
0.586917,0.540041,0.910797,0.673217
0.586859,0.540013,0.910706,0.673149
0.5868,0.539984,0.910615,0.673082
0.586741,0.539956,0.910524,0.673015
0.586682,0.539927,0.910433,0.672947
0.586624,0.539898,0.910342,0.67288
0.586565,0.53987,0.910251,0.672813
0.586506,0.539841,0.910159,0.672746
0.586448,0.539813,0.910068,0.672678
0.586389,0.539784,0.909977,0.672611
0.586331,0.539756,0.909886,0.672544
0.586272,0.539727,0.909795,0.672476
0.586213,0.539698,0.909705,0.672409
0.586155,0.53967,0.909614,0.672342
0.586096,0.539641,0.909523,0.672275
0.586037,0.539613,0.909432,0.672207
0.585979,0.539584,0.909341,0.67214
0.58592,0.539556,0.90925,0.672073
0.585862,0.539527,0.909159,0.672006
0.585803,0.539499,0.909068,0.671939
0.585744,0.53947,0.908977,0.671871
0.585686,0.539442,0.908886,0.671804
0.585627,0.539413,0.908795,0.671737
0.585569,0.539384,0.908704,0.67167
0.58551,0.539356,0.908613,0.671603
0.585452,0.539327,0.908523,0.671536
0.585393,0.539299,0.908432,0.671468
0.585335,0.53927,0.908341,0.671401
0.585276,0.539242,0.90825,0.671334
0.585218,0.539213,0.908159,0.671267
0.585159,0.539185,0.908068,0.6712
0.5851,0.539156,0.907978,0.671133
0.585042,0.539128,0.907887,0.671066
0.584983,0.539099,0.907796,0.670999
0.584925,0.539071,0.907705,0.670931
0.584866,0.539042,0.907614,0.670864
0.584808,0.539014,0.907524,0.670797
0.58475,0.538985,0.907433,0.67073
0.584691,0.538956,0.907342,0.670663
0.584633,0.538928,0.907251,0.670596
0.584574,0.538899,0.907161,0.670529
0.584516,0.538871,0.90707,0.670462
0.584457,0.538842,0.906979,0.670395
0.584399,0.538814,0.906889,0.670328
0.58434,0.538785,0.906798,0.670261
0.584282,0.538757,0.906707,0.670194
0.584223,0.538728,0.906617,0.670127
0.584165,0.5387,0.906526,0.67006
0.584107,0.538671,0.906435,0.669993
0.584048,0.538643,0.906345,0.669926
0.58399,0.538614,0.906254,0.669859
0.583931,0.538586,0.906163,0.669792
0.583873,0.538557,0.906073,0.669725
0.583815,0.538529,0.905982,0.669658
0.583756,0.5385,0.905892,0.669591
0.583698,0.538472,0.905801,0.669524
0.583639,0.538443,0.90571,0.669457
0.583581,0.538415,0.90562,0.66939
0.583523,0.538386,0.905529,0.669323
0.583464,0.538358,0.905439,0.669256
0.583406,0.538329,0.905348,0.669189
0.583348,0.538301,0.905258,0.669122
0.583289,0.538272,0.905167,0.669055
0.583231,0.538244,0.905077,0.668988
0.583173,0.538215,0.904986,0.668922
0.583114,0.538187,0.904896,0.668855
0.583056,0.538159,0.904805,0.668788
0.582998,0.53813,0.904715,0.668721
0.582939,0.538102,0.904624,0.668654
0.582881,0.538073,0.904534,0.668587
0.582823,0.538045,0.904443,0.66852
0.582765,0.538016,0.904353,0.668453
0.582706,0.537988,0.904262,0.668387
0.582648,0.537959,0.904172,0.66832
0.58259,0.537931,0.904082,0.668253
0.582532,0.537902,0.903991,0.668186
0.582473,0.537874,0.903901,0.668119
0.582415,0.537845,0.90381,0.668052
0.582357,0.537817,0.90372,0.667986
0.582299,0.537788,0.90363,0.667919
0.58224,0.53776,0.903539,0.667852
0.582182,0.537732,0.903449,0.667785
0.582124,0.537703,0.903358,0.667719
0.582066,0.537675,0.903268,0.667652
0.582007,0.537646,0.903178,0.667585
0.581949,0.537618,0.903088,0.667518
0.581891,0.537589,0.902997,0.667451
0.581833,0.537561,0.902907,0.667385
0.581775,0.537532,0.902817,0.667318
0.581717,0.537504,0.902726,0.667251
0.581658,0.537476,0.902636,0.667185
0.5816,0.537447,0.902546,0.667118
0.581542,0.537419,0.902456,0.667051
0.581484,0.53739,0.902365,0.666984
0.581426,0.537362,0.902275,0.666918
0.581368,0.537333,0.902185,0.666851
0.581309,0.537305,0.902095,0.666784
0.581251,0.537276,0.902004,0.666718
0.581193,0.537248,0.901914,0.666651
0.581135,0.53722,0.901824,0.666584
0.581077,0.537191,0.901734,0.666518
0.581019,0.537163,0.901644,0.666451
0.580961,0.537134,0.901553,0.666384
0.580903,0.537106,0.901463,0.666318
0.580845,0.537077,0.901373,0.666251
0.580786,0.537049,0.901283,0.666184
0.580728,0.537021,0.901193,0.666118
0.58067,0.536992,0.901103,0.666051
0.580612,0.536964,0.901013,0.665985
0.580554,0.536935,0.900923,0.665918
0.580496,0.536907,0.900833,0.665851
0.580438,0.536879,0.900742,0.665785
0.58038,0.53685,0.900652,0.665718
0.580322,0.536822,0.900562,0.665652
0.580264,0.536793,0.900472,0.665585
0.580206,0.536765,0.900382,0.665519
0.580148,0.536737,0.900292,0.665452
0.58009,0.536708,0.900202,0.665385
0.580032,0.53668,0.900112,0.665319
0.579974,0.536651,0.900022,0.665252
0.579916,0.536623,0.899932,0.665186
0.579858,0.536595,0.899842,0.665119
0.5798,0.536566,0.899752,0.665053
0.579742,0.536538,0.899662,0.664986
0.579684,0.536509,0.899572,0.66492
0.579626,0.536481,0.899482,0.664853
0.579568,0.536453,0.899392,0.664787
0.57951,0.536424,0.899302,0.66472
0.579452,0.536396,0.899212,0.664654
0.579394,0.536367,0.899122,0.664587
0.579336,0.536339,0.899033,0.664521
0.579278,0.536311,0.898943,0.664455
0.57922,0.536282,0.898853,0.664388
0.579162,0.536254,0.898763,0.664322
0.579105,0.536226,0.898673,0.664255
0.579047,0.536197,0.898583,0.664189
0.578989,0.536169,0.898493,0.664122
0.578931,0.53614,0.898403,0.664056
0.578873,0.536112,0.898314,0.66399
0.578815,0.536084,0.898224,0.663923
0.578757,0.536055,0.898134,0.663857
0.578699,0.536027,0.898044,0.66379
0.578641,0.535999,0.897954,0.663724
0.578584,0.53597,0.897865,0.663658
0.578526,0.535942,0.897775,0.663591
0.578468,0.535914,0.897685,0.663525
0.57841,0.535885,0.897595,0.663459
0.578352,0.535857,0.897505,0.663392
0.578294,0.535828,0.897416,0.663326
0.578237,0.5358,0.897326,0.66326
0.578179,0.535772,0.897236,0.663193
0.578121,0.535743,0.897146,0.663127
0.578063,0.535715,0.897057,0.663061
0.578005,0.535687,0.896967,0.662994
0.577947,0.535658,0.896877,0.662928
0.57789,0.53563,0.896788,0.662862
0.577832,0.535602,0.896698,0.662795
0.577774,0.535573,0.896608,0.662729
0.577716,0.535545,0.896519,0.662663
0.577659,0.535517,0.896429,0.662597
0.577601,0.535488,0.896339,0.66253
0.577543,0.53546,0.89625,0.662464
0.577485,0.535432,0.89616,0.662398
0.577428,0.535403,0.89607,0.662332
0.57737,0.535375,0.895981,0.662265
0.577312,0.535347,0.895891,0.662199
0.577254,0.535318,0.895802,0.662133
0.577197,0.53529,0.895712,0.662067
0.577139,0.535262,0.895623,0.662
0.577081,0.535233,0.895533,0.661934
0.577023,0.535205,0.895443,0.661868
0.576966,0.535177,0.895354,0.661802
0.576908,0.535148,0.895264,0.661736
0.57685,0.53512,0.895175,0.66167
0.576793,0.535092,0.895085,0.661603
0.576735,0.535063,0.894996,0.661537
0.576677,0.535035,0.894906,0.661471
0.57662,0.535007,0.894817,0.661405
0.576562,0.534979,0.894727,0.661339
0.576504,0.53495,0.894638,0.661273
0.576447,0.534922,0.894548,0.661207
0.576389,0.534894,0.894459,0.66114
0.576331,0.534865,0.894369,0.661074
0.576274,0.534837,0.89428,0.661008
0.576216,0.534809,0.894191,0.660942
0.576159,0.53478,0.894101,0.660876
0.576101,0.534752,0.894012,0.66081
0.576043,0.534724,0.893922,0.660744
0.575986,0.534696,0.893833,0.660678
0.575928,0.534667,0.893744,0.660612
0.57587,0.534639,0.893654,0.660546
0.575813,0.534611,0.893565,0.66048
0.575755,0.534582,0.893476,0.660414
0.575698,0.534554,0.893386,0.660347
0.57564,0.534526,0.893297,0.660281
0.575583,0.534498,0.893208,0.660215
0.575525,0.534469,0.893118,0.660149
0.575468,0.534441,0.893029,0.660083
0.57541,0.534413,0.89294,0.660017
0.575352,0.534384,0.89285,0.659951
0.575295,0.534356,0.892761,0.659885
0.575237,0.534328,0.892672,0.659819
0.57518,0.5343,0.892582,0.659753
0.575122,0.534271,0.892493,0.659687
0.575065,0.534243,0.892404,0.659621
0.575007,0.534215,0.892315,0.659555
0.57495,0.534186,0.892225,0.65949
0.574892,0.534158,0.892136,0.659424
0.574835,0.53413,0.892047,0.659358
0.574777,0.534102,0.891958,0.659292
0.57472,0.534073,0.891869,0.659226
0.574662,0.534045,0.891779,0.65916
0.574605,0.534017,0.89169,0.659094
0.574547,0.533989,0.891601,0.659028
0.57449,0.53396,0.891512,0.658962
0.574433,0.533932,0.891423,0.658896
0.574375,0.533904,0.891334,0.65883
0.574318,0.533876,0.891245,0.658764
0.57426,0.533847,0.891155,0.658699
0.574203,0.533819,0.891066,0.658633
0.574145,0.533791,0.890977,0.658567
0.574088,0.533763,0.890888,0.658501
0.574031,0.533734,0.890799,0.658435
0.573973,0.533706,0.89071,0.658369
0.573916,0.533678,0.890621,0.658303
0.573858,0.53365,0.890532,0.658238
0.573801,0.533621,0.890443,0.658172
0.573744,0.533593,0.890354,0.658106
0.573686,0.533565,0.890265,0.65804
0.573629,0.533537,0.890176,0.657974
0.573571,0.533509,0.890087,0.657909
0.573514,0.53348,0.889998,0.657843
0.573457,0.533452,0.889909,0.657777
0.573399,0.533424,0.88982,0.657711
0.573342,0.533396,0.889731,0.657645
0.573285,0.533367,0.889642,0.65758
0.573227,0.533339,0.889553,0.657514
0.57317,0.533311,0.889464,0.657448
0.573113,0.533283,0.889375,0.657382
0.573055,0.533254,0.889286,0.657317
0.572998,0.533226,0.889197,0.657251
0.572941,0.533198,0.889108,0.657185
0.572884,0.53317,0.889019,0.65712
0.572826,0.533142,0.88893,0.657054
0.572769,0.533113,0.888841,0.656988
0.572712,0.533085,0.888752,0.656922
0.572654,0.533057,0.888664,0.656857
0.572597,0.533029,0.888575,0.656791
0.57254,0.533001,0.888486,0.656725
0.572483,0.532972,0.888397,0.65666
0.572425,0.532944,0.888308,0.656594
0.572368,0.532916,0.888219,0.656528
0.572311,0.532888,0.88813,0.656463
0.572254,0.53286,0.888042,0.656397
0.572197,0.532831,0.887953,0.656331
0.572139,0.532803,0.887864,0.656266
0.572082,0.532775,0.887775,0.6562
0.572025,0.532747,0.887686,0.656135
0.571968,0.532719,0.887598,0.656069
0.57191,0.53269,0.887509,0.656003
0.571853,0.532662,0.88742,0.655938
0.571796,0.532634,0.887331,0.655872
0.571739,0.532606,0.887243,0.655807
0.571682,0.532578,0.887154,0.655741
0.571625,0.53255,0.887065,0.655675
0.571567,0.532521,0.886977,0.65561
0.57151,0.532493,0.886888,0.655544
0.571453,0.532465,0.886799,0.655479
0.571396,0.532437,0.886711,0.655413
0.571339,0.532409,0.886622,0.655348
0.571282,0.53238,0.886533,0.655282
0.571225,0.532352,0.886445,0.655217
0.571167,0.532324,0.886356,0.655151
0.57111,0.532296,0.886267,0.655086
0.571053,0.532268,0.886179,0.65502
0.570996,0.53224,0.88609,0.654955
0.570939,0.532211,0.886001,0.654889
0.570882,0.532183,0.885913,0.654824
0.570825,0.532155,0.885824,0.654758
0.570768,0.532127,0.885736,0.654693
0.570711,0.532099,0.885647,0.654627
0.570654,0.532071,0.885558,0.654562
0.570597,0.532043,0.88547,0.654496
0.570539,0.532014,0.885381,0.654431
0.570482,0.531986,0.885293,0.654365
0.570425,0.531958,0.885204,0.6543
0.570368,0.53193,0.885116,0.654234
0.570311,0.531902,0.885027,0.654169
0.570254,0.531874,0.884939,0.654104
0.570197,0.531845,0.88485,0.654038
0.57014,0.531817,0.884762,0.653973
0.570083,0.531789,0.884673,0.653907
0.570026,0.531761,0.884585,0.653842
0.569969,0.531733,0.884496,0.653777
0.569912,0.531705,0.884408,0.653711
0.569855,0.531677,0.884319,0.653646
0.569798,0.531649,0.884231,0.65358
0.569741,0.53162,0.884143,0.653515
0.569684,0.531592,0.884054,0.65345
0.569627,0.531564,0.883966,0.653384
0.56957,0.531536,0.883877,0.653319
0.569513,0.531508,0.883789,0.653254
0.569456,0.53148,0.883701,0.653188
0.569399,0.531452,0.883612,0.653123
0.569343,0.531424,0.883524,0.653058
0.569286,0.531395,0.883436,0.652992
0.569229,0.531367,0.883347,0.652927
0.569172,0.531339,0.883259,0.652862
0.569115,0.531311,0.883171,0.652797
0.569058,0.531283,0.883082,0.652731
0.569001,0.531255,0.882994,0.652666
0.568944,0.531227,0.882906,0.652601
0.568887,0.531199,0.882817,0.652536
0.56883,0.53117,0.882729,0.65247
0.568773,0.531142,0.882641,0.652405
0.568717,0.531114,0.882553,0.65234
0.56866,0.531086,0.882464,0.652275
0.568603,0.531058,0.882376,0.652209
0.568546,0.53103,0.882288,0.652144
0.568489,0.531002,0.8822,0.652079
0.568432,0.530974,0.882111,0.652014
0.568375,0.530946,0.882023,0.651948
0.568319,0.530918,0.881935,0.651883
0.568262,0.530889,0.881847,0.651818
0.568205,0.530861,0.881759,0.651753
0.568148,0.530833,0.88167,0.651688
0.568091,0.530805,0.881582,0.651623
0.568034,0.530777,0.881494,0.651557
0.567978,0.530749,0.881406,0.651492
0.567921,0.530721,0.881318,0.651427
0.567864,0.530693,0.88123,0.651362
0.567807,0.530665,0.881142,0.651297
0.567751,0.530637,0.881053,0.651232
0.567694,0.530609,0.880965,0.651167
0.567637,0.530581,0.880877,0.651101
0.56758,0.530552,0.880789,0.651036
0.567523,0.530524,0.880701,0.650971
0.567467,0.530496,0.880613,0.650906
0.56741,0.530468,0.880525,0.650841
0.567353,0.53044,0.880437,0.650776
0.567296,0.530412,0.880349,0.650711
0.56724,0.530384,0.880261,0.650646
0.567183,0.530356,0.880173,0.650581
0.567126,0.530328,0.880085,0.650516
0.56707,0.5303,0.879997,0.650451
0.567013,0.530272,0.879909,0.650386
0.566956,0.530244,0.879821,0.650321
0.566899,0.530216,0.879733,0.650256
0.566843,0.530188,0.879645,0.650191
0.566786,0.53016,0.879557,0.650125
0.566729,0.530132,0.879469,0.65006
0.566673,0.530103,0.879381,0.649995
0.566616,0.530075,0.879293,0.64993
0.566559,0.530047,0.879205,0.649865
0.566503,0.530019,0.879117,0.6498
0.566446,0.529991,0.879029,0.649736
0.566389,0.529963,0.878941,0.649671
0.566333,0.529935,0.878853,0.649606
0.566276,0.529907,0.878766,0.649541
0.56622,0.529879,0.878678,0.649476
0.566163,0.529851,0.87859,0.649411
0.566106,0.529823,0.878502,0.649346
0.56605,0.529795,0.878414,0.649281
0.565993,0.529767,0.878326,0.649216
0.565937,0.529739,0.878238,0.649151
0.56588,0.529711,0.878151,0.649086
0.565823,0.529683,0.878063,0.649021
0.565767,0.529655,0.877975,0.648956
0.56571,0.529627,0.877887,0.648891
0.565654,0.529599,0.877799,0.648826
0.565597,0.529571,0.877712,0.648762
0.56554,0.529543,0.877624,0.648697
0.565484,0.529515,0.877536,0.648632
0.565427,0.529487,0.877448,0.648567
0.565371,0.529459,0.877361,0.648502
0.565314,0.529431,0.877273,0.648437
0.565258,0.529403,0.877185,0.648372
0.565201,0.529375,0.877097,0.648308
0.565145,0.529347,0.87701,0.648243
0.565088,0.529319,0.876922,0.648178
0.565032,0.529291,0.876834,0.648113
0.564975,0.529263,0.876747,0.648048
0.564919,0.529235,0.876659,0.647984
0.564862,0.529207,0.876571,0.647919
0.564806,0.529179,0.876484,0.647854
0.564749,0.529151,0.876396,0.647789
0.564693,0.529123,0.876308,0.647724
0.564636,0.529095,0.876221,0.64766
0.56458,0.529067,0.876133,0.647595
0.564523,0.529039,0.876045,0.64753
0.564467,0.529011,0.875958,0.647465
0.56441,0.528983,0.87587,0.647401
0.564354,0.528955,0.875783,0.647336
0.564298,0.528927,0.875695,0.647271
0.564241,0.528899,0.875607,0.647206
0.564185,0.528871,0.87552,0.647142
0.564128,0.528843,0.875432,0.647077
0.564072,0.528815,0.875345,0.647012
0.564016,0.528787,0.875257,0.646948
0.563959,0.528759,0.87517,0.646883
0.563903,0.528731,0.875082,0.646818
0.563846,0.528703,0.874995,0.646753
0.56379,0.528675,0.874907,0.646689
0.563734,0.528647,0.87482,0.646624
0.563677,0.528619,0.874732,0.646559
0.563621,0.528591,0.874645,0.646495
0.563564,0.528563,0.874557,0.64643
0.563508,0.528535,0.87447,0.646365
0.563452,0.528507,0.874382,0.646301
0.563395,0.528479,0.874295,0.646236
0.563339,0.528451,0.874208,0.646172
0.563283,0.528423,0.87412,0.646107
0.563226,0.528395,0.874033,0.646042
0.56317,0.528367,0.873945,0.645978
0.563114,0.528339,0.873858,0.645913
0.563057,0.528311,0.873771,0.645849
0.563001,0.528283,0.873683,0.645784
0.562945,0.528255,0.873596,0.645719
0.562889,0.528227,0.873508,0.645655
0.562832,0.528199,0.873421,0.64559
0.562776,0.528172,0.873334,0.645526
0.56272,0.528144,0.873246,0.645461
0.562663,0.528116,0.873159,0.645397
0.562607,0.528088,0.873072,0.645332
0.562551,0.52806,0.872984,0.645268
0.562495,0.528032,0.872897,0.645203
0.562438,0.528004,0.87281,0.645138
0.562382,0.527976,0.872723,0.645074
0.562326,0.527948,0.872635,0.645009
0.56227,0.52792,0.872548,0.644945
0.562213,0.527892,0.872461,0.64488
0.562157,0.527864,0.872374,0.644816
0.562101,0.527836,0.872286,0.644752
0.562045,0.527808,0.872199,0.644687
0.561989,0.52778,0.872112,0.644623
0.561932,0.527752,0.872025,0.644558
0.561876,0.527725,0.871937,0.644494
0.56182,0.527697,0.87185,0.644429
0.561764,0.527669,0.871763,0.644365
0.561708,0.527641,0.871676,0.6443
0.561651,0.527613,0.871589,0.644236
0.561595,0.527585,0.871502,0.644171
0.561539,0.527557,0.871414,0.644107
0.561483,0.527529,0.871327,0.644043
0.561427,0.527501,0.87124,0.643978
0.561371,0.527473,0.871153,0.643914
0.561315,0.527445,0.871066,0.643849
0.561258,0.527417,0.870979,0.643785
0.561202,0.52739,0.870892,0.643721
0.561146,0.527362,0.870805,0.643656
0.56109,0.527334,0.870718,0.643592
0.561034,0.527306,0.87063,0.643528
0.560978,0.527278,0.870543,0.643463
0.560922,0.52725,0.870456,0.643399
0.560866,0.527222,0.870369,0.643335
0.56081,0.527194,0.870282,0.64327
0.560754,0.527166,0.870195,0.643206
0.560697,0.527138,0.870108,0.643142
0.560641,0.527111,0.870021,0.643077
0.560585,0.527083,0.869934,0.643013
0.560529,0.527055,0.869847,0.642949
0.560473,0.527027,0.86976,0.642884
0.560417,0.526999,0.869673,0.64282
0.560361,0.526971,0.869586,0.642756
0.560305,0.526943,0.869499,0.642691
0.560249,0.526915,0.869412,0.642627
0.560193,0.526887,0.869325,0.642563
0.560137,0.52686,0.869239,0.642499
0.560081,0.526832,0.869152,0.642434
0.560025,0.526804,0.869065,0.64237
0.559969,0.526776,0.868978,0.642306
0.559913,0.526748,0.868891,0.642242
0.559857,0.52672,0.868804,0.642178
0.559801,0.526692,0.868717,0.642113
0.559745,0.526664,0.86863,0.642049
0.559689,0.526637,0.868543,0.641985
0.559633,0.526609,0.868457,0.641921
0.559577,0.526581,0.86837,0.641857
0.559521,0.526553,0.868283,0.641792
0.559465,0.526525,0.868196,0.641728
0.559409,0.526497,0.868109,0.641664
