energy,productivity,fun,hunger
0.71612,0.562249,0.952538,0.866501
0.716049,0.562206,0.981016,0.866415
0.715619,0.562164,0.980918,0.866328
0.71519,0.562121,0.98082,0.866242
0.714761,0.562078,0.980722,0.866155
0.714332,0.562035,0.980624,0.866068
0.713903,0.561992,0.980526,0.865982
0.713475,0.56195,0.980428,0.865895
0.713047,0.561907,0.98033,0.865808
0.712619,0.561864,0.980232,0.865722
0.712191,0.561821,0.980134,0.865635
0.711764,0.561778,0.980036,0.865549
0.711337,0.561736,0.979938,0.865462
0.71091,0.561693,0.97984,0.865376
0.710484,0.56165,0.979742,0.865289
0.710058,0.561607,0.979644,0.865203
0.709632,0.561565,0.979546,0.865116
0.709206,0.561522,0.979448,0.86503
0.70878,0.561479,0.97935,0.864943
0.708355,0.561436,0.979252,0.864857
0.70793,0.561394,0.979154,0.86477
0.707505,0.561351,0.979056,0.864684
0.707081,0.561308,0.978958,0.864597
0.706657,0.561265,0.97886,0.864511
0.706233,0.561223,0.978763,0.864424
0.705809,0.56118,0.978665,0.864338
0.705386,0.561137,0.978567,0.864251
0.704963,0.561094,0.978469,0.864165
0.70454,0.561052,0.978371,0.864079
0.704117,0.561009,0.978273,0.863992
0.703694,0.560966,0.978175,0.863906
0.703272,0.560924,0.978078,0.863819
0.70285,0.560881,0.97798,0.863733
0.702429,0.560838,0.977882,0.863647
0.702007,0.560795,0.977784,0.86356
0.701586,0.560753,0.977686,0.863474
0.701165,0.56071,0.977589,0.863388
0.700744,0.560667,0.977491,0.863301
0.700324,0.560625,0.977393,0.863215
0.699904,0.560582,0.977295,0.863129
0.699484,0.560539,0.977198,0.863042
0.699064,0.560497,0.9771,0.862956
0.698994,0.560454,0.977002,0.86287
0.698925,0.560411,1,0.862783
0.698505,0.560369,0.9999,0.862697
0.698086,0.560326,0.9998,0.862611
0.697667,0.560283,0.9997,0.862525
0.697249,0.560241,0.9996,0.862438
0.69683,0.560198,0.9995,0.862352
0.696412,0.560155,0.9994,0.862266
0.695995,0.560113,0.9993,0.86218
0.695577,0.56007,0.9992,0.862093
0.69516,0.560027,0.9991,0.862007
0.694743,0.559985,0.999,0.861921
0.694326,0.559942,0.998901,0.861835
0.693909,0.559899,0.998801,0.861749
0.693493,0.559857,0.998701,0.861662
0.693077,0.559814,0.998601,0.861576
0.692661,0.559771,0.998501,0.86149
0.692246,0.559729,0.998401,0.861404
0.69183,0.559686,0.998301,0.861318
0.691415,0.559644,0.998202,0.861232
0.691,0.559601,0.998102,0.861146
0.690586,0.559558,0.998002,0.861059
0.690171,0.559516,0.997902,0.860973
0.689757,0.559473,0.997802,0.860887
0.689344,0.559431,0.997703,0.860801
0.68893,0.559388,0.997603,0.860715
0.688517,0.559345,0.997503,0.860629
0.688104,0.559303,0.997403,0.860543
0.687691,0.55926,0.997304,0.860457
0.687278,0.559218,0.997204,0.860371
0.686866,0.559175,0.997104,0.860285
0.686454,0.559132,0.997004,0.860199
0.686042,0.55909,0.996905,0.860113
0.68563,0.559047,0.996805,0.860027
0.685219,0.559005,0.996705,0.859941
0.684808,0.558962,0.996606,0.859855
0.684397,0.55892,0.996506,0.859769
0.683986,0.558877,0.996406,0.859683
0.683576,0.558835,0.996307,0.859597
0.683508,0.558792,0.996207,0.859511
0.683439,0.558749,1,0.859425
0.683029,0.558707,0.9999,0.859339
0.68262,0.558664,0.9998,0.859253
0.68221,0.558622,0.9997,0.859167
0.681801,0.558579,0.9996,0.859081
0.681392,0.558537,0.9995,0.858995
0.680983,0.558494,0.9994,0.858909
0.680574,0.558452,0.9993,0.858823
0.680166,0.558409,0.9992,0.858738
0.679758,0.558367,0.9991,0.858652
0.67935,0.558324,0.999,0.858566
0.678943,0.558282,0.998901,0.85848
0.678535,0.558239,0.998801,0.858394
0.678128,0.558197,0.998701,0.858308
0.677721,0.558154,0.998601,0.858222
0.677315,0.558112,0.998501,0.858137
0.676908,0.558069,0.998401,0.858051
0.676502,0.558027,0.998301,0.857965
0.676096,0.557984,0.998202,0.857879
0.675691,0.557942,0.998102,0.857793
0.675285,0.557899,0.998002,0.857708
0.67488,0.557857,0.997902,0.857622
0.674475,0.557814,0.997802,0.857536
0.674071,0.557772,0.997703,0.85745
0.673666,0.557729,0.997603,0.857365
0.673262,0.557687,0.997503,0.857279
0.672858,0.557644,0.997403,0.857193
0.672455,0.557602,0.997304,0.857107
0.672051,0.557559,0.997204,0.857022
0.671648,0.557517,0.997104,0.856936
0.671245,0.557474,0.997004,0.85685
0.670842,0.557432,0.996905,0.856765
0.67044,0.55739,0.996805,0.856679
0.670037,0.557347,0.996705,0.856593
0.669636,0.557305,0.996606,0.856508
0.669234,0.557262,0.996506,0.856422
0.668832,0.55722,0.996406,0.856336
0.668431,0.557177,0.996307,0.856251
0.66803,0.557135,0.996207,0.856165
0.667629,0.557093,0.996107,0.856079
0.667229,0.55705,0.996008,0.855994
0.666828,0.557008,0.995908,0.855908
0.666428,0.556965,0.995809,0.855823
0.666028,0.556923,0.995709,0.855737
0.665629,0.55688,0.995609,0.855651
0.66523,0.556838,0.99551,0.855566
0.66483,0.556796,0.99541,0.85548
0.664432,0.556753,0.995311,0.855395
0.664033,0.556711,0.995211,0.855309
0.663635,0.556668,0.995112,0.855224
0.663236,0.556626,0.995012,0.855138
0.662838,0.556584,0.994913,0.855053
0.662441,0.556541,0.994813,0.854967
0.662043,0.556499,0.994714,0.854882
0.661646,0.556457,0.994614,0.854796
0.661249,0.556414,0.994515,0.854711
0.660853,0.556372,0.994415,0.854625
0.660456,0.556329,0.994316,0.85454
0.66006,0.556287,0.994216,0.854454
0.659994,0.556245,0.994117,0.854369
0.659928,0.556202,1,0.854283
0.659532,0.55616,0.9999,0.854198
0.659136,0.556118,0.9998,0.854113
0.658741,0.556075,0.9997,0.854027
0.658346,0.556033,0.9996,0.853942
0.657951,0.555991,0.9995,0.853856
0.657556,0.555948,0.9994,0.853771
0.657161,0.555906,0.9993,0.853686
0.656767,0.555864,0.9992,0.8536
0.656373,0.555821,0.9991,0.853515
0.655979,0.555779,0.999,0.85343
0.655586,0.555737,0.998901,0.853344
0.655192,0.555694,0.998801,0.853259
0.654799,0.555652,0.998701,0.853174
0.654406,0.55561,0.998601,0.853088
0.654014,0.555567,0.998501,0.853003
0.653621,0.555525,0.998401,0.852918
0.653229,0.555483,0.998301,0.852832
0.652837,0.555441,0.998202,0.852747
0.652446,0.555398,0.998102,0.852662
0.652054,0.555356,0.998002,0.852577
0.651663,0.555314,0.997902,0.852491
0.651272,0.555271,0.997802,0.852406
0.650881,0.555229,0.997703,0.852321
0.650491,0.555187,0.997603,0.852236
0.650101,0.555145,0.997503,0.85215
0.649711,0.555102,0.997403,0.852065
0.649321,0.55506,0.997304,0.85198
0.648931,0.555018,0.997204,0.851895
0.648542,0.554976,0.997104,0.85181
0.648153,0.554933,0.997004,0.851724
0.647764,0.554891,0.996905,0.851639
0.647375,0.554849,0.996805,0.851554
0.646987,0.554807,0.996705,0.851469
0.646922,0.554764,0.996606,0.851384
0.646858,0.554722,1,0.851299
0.646469,0.55468,0.9999,0.851213
0.646082,0.554638,0.9998,0.851128
0.645694,0.554595,0.9997,0.851043
0.645307,0.554553,0.9996,0.850958
0.644919,0.554511,0.9995,0.850873
0.644533,0.554469,0.9994,0.850788
0.644146,0.554426,0.9993,0.850703
0.643759,0.554384,0.9992,0.850618
0.643373,0.554342,0.9991,0.850533
0.642987,0.5543,0.999,0.850448
0.642923,0.554258,0.998901,0.850363
0.642859,0.554215,1,0.850278
0.642473,0.554173,0.9999,0.850193
0.642087,0.554131,0.9998,0.850108
0.641702,0.554089,0.9997,0.850023
0.641317,0.554047,0.9996,0.849938
0.640933,0.554004,0.9995,0.849853
0.640548,0.553962,0.9994,0.849768
0.640164,0.55392,0.9993,0.849683
0.63978,0.553878,0.9992,0.849598
0.639396,0.553836,0.9991,0.849513
0.639012,0.553794,0.999,0.849428
0.638629,0.553751,0.998901,0.849343
0.638246,0.553709,0.998801,0.849258
0.637863,0.553667,0.998701,0.849173
0.63748,0.553625,0.998601,0.849088
0.637098,0.553583,0.998501,0.849003
0.636715,0.553541,0.998401,0.848918
0.636333,0.553498,0.998301,0.848833
0.635952,0.553456,0.998202,0.848748
0.63557,0.553414,0.998102,0.848663
0.635189,0.553372,0.998002,0.848579
0.634808,0.55333,0.997902,0.848494
0.634427,0.553288,0.997802,0.848409
0.634046,0.553246,0.997703,0.848324
0.633666,0.553203,0.997603,0.848239
0.633286,0.553161,0.997503,0.848154
0.632906,0.553119,0.997403,0.84807
0.632526,0.553077,0.997304,0.847985
0.632146,0.553035,0.997204,0.8479
0.631767,0.552993,0.997104,0.847815
0.631388,0.552951,0.997004,0.84773
0.631009,0.552909,0.996905,0.847646
0.630631,0.552867,0.996805,0.847561
0.630252,0.552824,0.996705,0.847476
0.629874,0.552782,0.996606,0.847391
0.629496,0.55274,0.996506,0.847307
0.629119,0.552698,0.996406,0.847222
0.629056,0.552656,0.996307,0.847137
0.628993,0.552614,1,0.847052
0.628616,0.552572,0.9999,0.846968
0.628238,0.55253,0.9998,0.846883
0.627862,0.552488,0.9997,0.846798
0.627485,0.552446,0.9996,0.846714
0.627108,0.552404,0.9995,0.846629
0.626732,0.552362,0.9994,0.846544
0.626356,0.55232,0.9993,0.84646
0.62598,0.552277,0.9992,0.846375
0.625605,0.552235,0.9991,0.84629
0.62523,0.552193,0.999,0.846206
0.624854,0.552151,0.998901,0.846121
0.62448,0.552109,0.998801,0.846037
0.624105,0.552067,0.998701,0.845952
0.62373,0.552025,0.998601,0.845867
0.623356,0.551983,0.998501,0.845783
0.622982,0.551941,0.998401,0.845698
0.622608,0.551899,0.998301,0.845614
0.622235,0.551857,0.998202,0.845529
0.621862,0.551815,0.998102,0.845445
0.621489,0.551773,0.998002,0.84536
0.621116,0.551731,0.997902,0.845275
0.620743,0.551689,0.997802,0.845191
0.620371,0.551647,0.997703,0.845106
0.619998,0.551605,0.997603,0.845022
0.619936,0.551563,0.997503,0.844937
0.619874,0.551521,1,0.844853
0.619503,0.551479,0.9999,0.844768
0.619131,0.551437,0.9998,0.844684
0.618759,0.551395,0.9997,0.844599
0.618388,0.551353,0.9996,0.844515
0.618017,0.551311,0.9995,0.844431
0.617646,0.551269,0.9994,0.844346
0.617276,0.551227,0.9993,0.844262
0.616906,0.551185,0.9992,0.844177
0.616535,0.551143,0.9991,0.844093
0.616166,0.551101,0.999,0.844008
0.615796,0.551059,0.998901,0.843924
0.615426,0.551017,0.998801,0.84384
0.615057,0.550975,0.998701,0.843755
0.614688,0.550933,0.998601,0.843671
0.614319,0.550891,0.998501,0.843587
0.613951,0.550849,0.998401,0.843502
0.613583,0.550808,0.998301,0.843418
0.613214,0.550766,0.998202,0.843333
0.612847,0.550724,0.998102,0.843249
0.612479,0.550682,0.998002,0.843165
0.612111,0.55064,0.997902,0.84308
0.611744,0.550598,0.997802,0.842996
0.611377,0.550556,0.997703,0.842912
0.61101,0.550514,0.997603,0.842828
0.610644,0.550472,0.997503,0.842743
0.610277,0.55043,0.997403,0.842659
0.609911,0.550388,0.997304,0.842575
0.609545,0.550346,0.997204,0.842491
0.60918,0.550304,0.997104,0.842406
0.608814,0.550263,0.997004,0.842322
0.608449,0.550221,0.996905,0.842238
0.608084,0.550179,0.996805,0.842154
0.607719,0.550137,0.996705,0.842069
0.607354,0.550095,0.996606,0.841985
0.60699,0.550053,0.996506,0.841901
0.606626,0.550011,0.996406,0.841817
0.606262,0.549969,0.996307,0.841733
0.605898,0.549927,0.996207,0.841648
0.605535,0.549886,0.996107,0.841564
0.605171,0.549844,0.996008,0.84148
0.604808,0.549802,0.995908,0.841396
0.604446,0.54976,0.995809,0.841312
0.604083,0.549718,0.995709,0.841228
0.60372,0.549676,0.995609,0.841144
0.603358,0.549634,0.99551,0.841059
0.602996,0.549593,0.99541,0.840975
0.602634,0.549551,0.995311,0.840891
0.602273,0.549509,0.995211,0.840807
0.601912,0.549467,0.995112,0.840723
0.60155,0.549425,0.995012,0.840639
0.60149,0.549383,0.994913,0.840555
0.60143,0.549342,1,0.840471
0.601069,0.5493,0.9999,0.840387
0.600709,0.549258,0.9998,0.840303
0.600348,0.549216,0.9997,0.840219
0.599988,0.549174,0.9996,0.840135
0.599628,0.549132,0.9995,0.840051
0.599268,0.549091,0.9994,0.839967
0.598909,0.549049,0.9993,0.839883
0.59855,0.549007,0.9992,0.839799
0.598191,0.548965,0.9991,0.839715
0.597832,0.548923,0.999,0.839631
0.597473,0.548882,0.998901,0.839547
0.597115,0.54884,0.998801,0.839463
0.596756,0.548798,0.998701,0.839379
0.596398,0.548756,0.998601,0.839295
0.59604,0.548714,0.998501,0.839211
0.595683,0.548673,0.998401,0.839127
0.595325,0.548631,0.998301,0.839043
0.594968,0.548589,0.998202,0.838959
0.594611,0.548547,0.998102,0.838875
0.594255,0.548506,0.998002,0.838792
0.593898,0.548464,0.997902,0.838708
0.593542,0.548422,0.997802,0.838624
0.593186,0.54838,0.997703,0.83854
0.59283,0.548338,0.997603,0.838456
0.592474,0.548297,0.997503,0.838372
0.592415,0.548255,0.997403,0.838288
0.592356,0.548213,1,0.838205
0.592,0.548172,0.9999,0.838121
0.591645,0.54813,0.9998,0.838037
0.59129,0.548088,0.9997,0.837953
0.590935,0.548046,0.9996,0.837869
0.590581,0.548005,0.9995,0.837786
0.590227,0.547963,0.9994,0.837702
0.589872,0.547921,0.9993,0.837618
0.589519,0.547879,0.9992,0.837534
0.589165,0.547838,0.9991,0.83745
0.588811,0.547796,0.999,0.837367
0.588458,0.547754,0.998901,0.837283
0.588105,0.547713,0.998801,0.837199
0.587752,0.547671,0.998701,0.837116
0.5874,0.547629,0.998601,0.837032
0.587047,0.547587,0.998501,0.836948
0.586695,0.547546,0.998401,0.836864
0.586343,0.547504,0.998301,0.836781
0.585991,0.547462,0.998202,0.836697
0.58564,0.547421,0.998102,0.836613
0.585288,0.547379,0.998002,0.83653
0.584937,0.547337,0.997902,0.836446
0.584586,0.547296,0.997802,0.836362
0.584236,0.547254,0.997703,0.836279
0.583885,0.547212,0.997603,0.836195
0.583535,0.547171,0.997503,0.836112
0.583185,0.547129,0.997403,0.836028
0.582835,0.547087,0.997304,0.835944
0.582485,0.547046,0.997204,0.835861
0.582136,0.547004,0.997104,0.835777
0.581786,0.546962,0.997004,0.835694
0.581437,0.546921,0.996905,0.83561
0.581088,0.546879,0.996805,0.835526
0.58074,0.546837,0.996705,0.835443
0.580391,0.546796,0.996606,0.835359
0.580043,0.546754,0.996506,0.835276
0.579695,0.546712,0.996406,0.835192
0.579347,0.546671,0.996307,0.835109
0.579,0.546629,0.996207,0.835025
0.578653,0.546588,0.996107,0.834942
0.578595,0.546546,0.996008,0.834858
0.578537,0.546504,1,0.834775
0.57819,0.546463,0.9999,0.834691
0.577843,0.546421,0.9998,0.834608
0.577496,0.54638,0.9997,0.834524
0.57715,0.546338,0.9996,0.834441
0.576803,0.546296,0.9995,0.834357
0.576457,0.546255,0.9994,0.834274
0.576111,0.546213,0.9993,0.834191
0.575766,0.546172,0.9992,0.834107
0.57542,0.54613,0.9991,0.834024
0.575075,0.546088,0.999,0.83394
0.57473,0.546047,0.998901,0.833857
0.574385,0.546005,0.998801,0.833774
0.574041,0.545964,0.998701,0.83369
0.573696,0.545922,0.998601,0.833607
0.573352,0.545881,0.998501,0.833523
0.573008,0.545839,0.998401,0.83344
0.572664,0.545797,0.998301,0.833357
0.572321,0.545756,0.998202,0.833273
0.571977,0.545714,0.998102,0.83319
0.571634,0.545673,0.998002,0.833107
0.571291,0.545631,0.997902,0.833023
0.570949,0.54559,0.997802,0.83294
0.570606,0.545548,0.997703,0.832857
0.570549,0.545507,0.997603,0.832774
0.570492,0.545465,1,0.83269
0.57015,0.545423,0.9999,0.832607
0.569808,0.545382,0.9998,0.832524
0.569466,0.54534,0.9997,0.832441
0.569124,0.545299,0.9996,0.832357
0.568783,0.545257,0.9995,0.832274
0.568441,0.545216,0.9994,0.832191
0.5681,0.545174,0.9993,0.832108
0.56776,0.545133,0.9992,0.832024
0.567419,0.545091,0.9991,0.831941
0.567079,0.54505,0.999,0.831858
0.566738,0.545008,0.998901,0.831775
0.566398,0.544967,0.998801,0.831692
0.566059,0.544925,0.998701,0.831608
0.565719,0.544884,0.998601,0.831525
0.565379,0.544842,0.998501,0.831442
0.56504,0.544801,0.998401,0.831359
0.564701,0.544759,0.998301,0.831276
0.564363,0.544718,0.998202,0.831193
0.564024,0.544676,0.998102,0.83111
0.563686,0.544635,0.998002,0.831027
0.563347,0.544593,0.997902,0.830943
0.563009,0.544552,0.997802,0.83086
0.562672,0.544511,0.997703,0.830777
0.562334,0.544469,0.997603,0.830694
0.562278,0.544428,0.997503,0.830611
0.562222,0.544386,1,0.830528
0.561884,0.544345,0.9999,0.830445
0.561547,0.544303,0.9998,0.830362
0.56121,0.544262,0.9997,0.830279
0.560874,0.54422,0.9996,0.830196
0.560537,0.544179,0.9995,0.830113
0.560201,0.544137,0.9994,0.83003
0.559865,0.544096,0.9993,0.829947
0.559529,0.544055,0.9992,0.829864
0.559193,0.544013,0.9991,0.829781
0.558858,0.543972,0.999,0.829698
0.558522,0.54393,0.998901,0.829615
0.558187,0.543889,0.998801,0.829532
0.557852,0.543848,0.998701,0.829449
0.557518,0.543806,0.998601,0.829366
0.557183,0.543765,0.998501,0.829283
0.557127,0.543723,0.998401,0.8292
0.557072,0.543682,1,0.829117
0.556738,0.54364,0.9999,0.829034
0.556404,0.543599,0.9998,0.828951
0.55607,0.543558,0.9997,0.828869
0.555736,0.543516,0.9996,0.828786
0.555403,0.543475,0.9995,0.828703
0.555069,0.543434,0.9994,0.82862
0.554736,0.543392,0.9993,0.828537
0.554404,0.543351,0.9992,0.828454
0.554071,0.543309,0.9991,0.828371
0.553739,0.543268,0.999,0.828289
0.553406,0.543227,0.998901,0.828206
0.553074,0.543185,0.998801,0.828123
0.552743,0.543144,0.998701,0.82804
0.552411,0.543103,0.998601,0.827957
0.55208,0.543061,0.998501,0.827874
0.551748,0.54302,0.998401,0.827792
0.551417,0.542979,0.998301,0.827709
0.551086,0.542937,0.998202,0.827626
0.550756,0.542896,0.998102,0.827543
0.550701,0.542855,0.998002,0.827461
0.550646,0.542813,1,0.827378
0.550315,0.542772,0.9999,0.827295
0.549985,0.542731,0.9998,0.827212
0.549655,0.542689,0.9997,0.82713
0.549325,0.542648,0.9996,0.827047
0.548996,0.542607,0.9995,0.826964
0.548666,0.542565,0.9994,0.826882
0.548337,0.542524,0.9993,0.826799
0.548008,0.542483,0.9992,0.826716
0.54768,0.542441,0.9991,0.826634
0.547351,0.5424,0.999,0.826551
0.547023,0.542359,0.998901,0.826468
0.546694,0.542317,0.998801,0.826386
0.546366,0.542276,0.998701,0.826303
0.546039,0.542235,0.998601,0.82622
0.545711,0.542194,0.998501,0.826138
0.545656,0.542152,0.998401,0.826055
0.545602,0.542111,1,0.825972
0.545275,0.54207,0.9999,0.82589
0.544947,0.542028,0.9998,0.825807
0.54462,0.541987,0.9997,0.825725
0.544294,0.541946,0.9996,0.825642
0.543967,0.541905,0.9995,0.82556
0.543641,0.541863,0.9994,0.825477
0.543315,0.541822,0.9993,0.825394
0.542989,0.541781,0.9992,0.825312
0.542663,0.54174,0.9991,0.825229
0.542337,0.541698,0.999,0.825147
0.542012,0.541657,0.998901,0.825064
0.541687,0.541616,0.998801,0.824982
0.541362,0.541575,0.998701,0.824899
0.541037,0.541533,0.998601,0.824817
0.540712,0.541492,0.998501,0.824734
0.540388,0.541451,0.998401,0.824652
0.540064,0.54141,0.998301,0.824569
0.53974,0.541368,0.998202,0.824487
0.539416,0.541327,0.998102,0.824404
0.539092,0.541286,0.998002,0.824322
0.538769,0.541245,0.997902,0.82424
0.538446,0.541204,0.997802,0.824157
0.538392,0.541162,0.997703,0.824075
0.538338,0.541121,1,0.823992
0.538015,0.54108,0.9999,0.82391
0.537692,0.541039,0.9998,0.823828
0.53737,0.540998,0.9997,0.823745
0.537047,0.540956,0.9996,0.823663
0.536725,0.540915,0.9995,0.82358
0.536403,0.540874,0.9994,0.823498
0.536081,0.540833,0.9993,0.823416
0.53576,0.540792,0.9992,0.823333
0.535438,0.54075,0.9991,0.823251
0.535117,0.540709,0.999,0.823169
0.534796,0.540668,0.998901,0.823086
0.534475,0.540627,0.998801,0.823004
0.534154,0.540586,0.998701,0.822922
0.533834,0.540545,0.998601,0.82284
0.533781,0.540503,0.998501,0.822757
0.533727,0.540462,1,0.822675
0.533407,0.540421,0.9999,0.822593
0.533087,0.54038,0.9998,0.82251
0.532767,0.540339,0.9997,0.822428
0.532448,0.540298,0.9996,0.822346
0.532128,0.540257,0.9995,0.822264
0.531809,0.540215,0.9994,0.822181
0.53149,0.540174,0.9993,0.822099
0.531171,0.540133,0.9992,0.822017
0.530852,0.540092,0.9991,0.821935
0.530534,0.540051,0.999,0.821853
0.530215,0.54001,0.998901,0.82177
0.529897,0.539969,0.998801,0.821688
0.529579,0.539928,0.998701,0.821606
0.529262,0.539886,0.998601,0.821524
0.528944,0.539845,0.998501,0.821442
0.528627,0.539804,0.998401,0.82136
0.52831,0.539763,0.998301,0.821278
0.527993,0.539722,0.998202,0.821195
0.527676,0.539681,0.998102,0.821113
0.527359,0.53964,0.998002,0.821031
0.527043,0.539599,0.997902,0.820949
0.526727,0.539558,0.997802,0.820867
0.526411,0.539517,0.997703,0.820785
0.526095,0.539475,0.997603,0.820703
0.525779,0.539434,0.997503,0.820621
0.525464,0.539393,0.997403,0.820539
0.525149,0.539352,0.997304,0.820457
0.524834,0.539311,0.997204,0.820375
0.524519,0.53927,0.997104,0.820293
0.524204,0.539229,0.997004,0.820211
0.52389,0.539188,0.996905,0.820129
0.523575,0.539147,0.996805,0.820046
0.523261,0.539106,0.996705,0.819964
0.522947,0.539065,0.996606,0.819882
0.522633,0.539024,0.996506,0.819801
0.52232,0.538983,0.996406,0.819719
0.522007,0.538942,0.996307,0.819637
0.521693,0.538901,0.996207,0.819555
0.52138,0.53886,0.996107,0.819473
0.521068,0.538819,0.996008,0.819391
0.521015,0.538778,0.995908,0.819309
0.520963,0.538737,1,0.819227
0.520651,0.538696,0.9999,0.819145
0.520338,0.538655,0.9998,0.819063
0.520026,0.538614,0.9997,0.818981
0.519714,0.538572,0.9996,0.818899
0.519402,0.538531,0.9995,0.818817
0.519091,0.53849,0.9994,0.818735
0.518779,0.538449,0.9993,0.818654
0.518468,0.538408,0.9992,0.818572
0.518157,0.538367,0.9991,0.81849
0.517846,0.538326,0.999,0.818408
0.517536,0.538285,0.998901,0.818326
0.517225,0.538245,0.998801,0.818244
