energy,productivity,fun,hunger
0.840658,0.876825,0.773204,0.819412
0.840574,0.876742,0.796321,0.81933
0.84007,0.87666,0.796241,0.819248
0.839566,0.876577,0.796161,0.819167
0.839062,0.876494,0.796082,0.819085
0.838559,0.876412,0.796002,0.819003
0.838056,0.876329,0.795923,0.818921
0.837553,0.876247,0.795843,0.818839
0.83705,0.876164,0.795763,0.818757
0.836548,0.876081,0.795684,0.818675
0.836046,0.875999,0.795604,0.818593
0.835545,0.875916,0.795525,0.818511
0.835044,0.875833,0.795445,0.81843
0.834543,0.875751,0.795366,0.818348
0.834042,0.875668,0.795286,0.818266
0.833541,0.875586,0.795207,0.818184
0.833041,0.875503,0.795127,0.818102
0.832542,0.875421,0.795048,0.81802
0.832042,0.875338,0.794968,0.817939
0.831543,0.875256,0.794889,0.817857
0.831044,0.875173,0.794809,0.817775
0.830545,0.87509,0.79473,0.817693
0.830047,0.875008,0.79465,0.817611
0.829549,0.874925,0.794571,0.81753
0.829051,0.874843,0.794491,0.817448
0.828554,0.87476,0.794412,0.817366
0.828057,0.874678,0.794332,0.817284
0.82756,0.874595,0.794253,0.817203
0.827064,0.874513,0.794173,0.817121
0.826568,0.874431,0.794094,0.817039
0.826072,0.874348,0.794015,0.816958
0.825989,0.874266,0.793935,0.816876
0.825906,0.874183,0.817671,0.816794
0.825411,0.874101,0.81759,0.816713
0.824916,0.874018,0.817508,0.816631
0.824421,0.873936,0.817426,0.816549
0.823926,0.873854,0.817344,0.816468
0.823432,0.873771,0.817263,0.816386
0.822938,0.873689,0.817181,0.816304
0.822444,0.873606,0.817099,0.816223
0.821951,0.873524,0.817018,0.816141
0.821458,0.873442,0.816936,0.816059
0.820965,0.873359,0.816854,0.815978
0.820472,0.873277,0.816772,0.815896
0.81998,0.873195,0.816691,0.815815
0.819488,0.873112,0.816609,0.815733
0.818996,0.87303,0.816527,0.815651
0.818505,0.872948,0.816446,0.81557
0.818014,0.872865,0.816364,0.815488
0.817523,0.872783,0.816283,0.815407
0.817033,0.872701,0.816201,0.815325
0.816543,0.872618,0.816119,0.815244
0.816053,0.872536,0.816038,0.815162
0.815563,0.872454,0.815956,0.815081
0.815074,0.872372,0.815874,0.814999
0.814585,0.872289,0.815793,0.814918
0.814096,0.872207,0.815711,0.814836
0.813608,0.872125,0.81563,0.814755
0.81312,0.872043,0.815548,0.814673
0.812632,0.87196,0.815467,0.814592
0.812144,0.871878,0.815385,0.81451
0.811657,0.871796,0.815304,0.814429
0.81117,0.871714,0.815222,0.814347
0.810683,0.871631,0.81514,0.814266
0.810197,0.871549,0.815059,0.814185
0.809711,0.871467,0.814977,0.814103
0.80963,0.871385,0.814896,0.814022
0.809549,0.871303,0.839259,0.81394
0.809063,0.871221,0.839175,0.813859
0.808578,0.871138,0.839091,0.813778
0.808093,0.871056,0.839007,0.813696
0.807608,0.870974,0.838923,0.813615
0.807123,0.870892,0.838839,0.813533
0.806639,0.87081,0.838755,0.813452
0.806155,0.870728,0.838672,0.813371
0.805672,0.870646,0.838588,0.813289
0.805188,0.870564,0.838504,0.813208
0.804705,0.870481,0.83842,0.813127
0.804222,0.870399,0.838336,0.813045
0.80374,0.870317,0.838252,0.812964
0.803258,0.870235,0.838169,0.812883
0.802776,0.870153,0.838085,0.812802
0.802294,0.870071,0.838001,0.81272
0.801813,0.869989,0.837917,0.812639
0.801332,0.869907,0.837833,0.812558
0.800851,0.869825,0.83775,0.812476
0.80037,0.869743,0.837666,0.812395
0.79989,0.869661,0.837582,0.812314
0.79941,0.869579,0.837498,0.812233
0.798931,0.869497,0.837414,0.812152
0.798451,0.869415,0.837331,0.81207
0.797972,0.869333,0.837247,0.811989
0.797494,0.869251,0.837163,0.811908
0.797015,0.869169,0.83708,0.811827
0.796936,0.869087,0.836996,0.811746
0.796856,0.869005,0.86202,0.811664
0.796378,0.868923,0.861933,0.811583
0.7959,0.868841,0.861847,0.811502
0.795422,0.868759,0.861761,0.811421
0.794945,0.868677,0.861675,0.81134
0.794468,0.868596,0.861589,0.811259
0.793992,0.868514,0.861502,0.811177
0.793515,0.868432,0.861416,0.811096
0.793039,0.86835,0.86133,0.811015
0.792563,0.868268,0.861244,0.810934
0.792088,0.868186,0.861158,0.810853
0.791613,0.868104,0.861072,0.810772
0.791138,0.868022,0.860986,0.810691
0.790663,0.867941,0.8609,0.81061
0.790189,0.867859,0.860813,0.810529
0.789715,0.867777,0.860727,0.810448
0.789241,0.867695,0.860641,0.810367
0.788767,0.867613,0.860555,0.810286
0.788294,0.867531,0.860469,0.810205
0.787821,0.86745,0.860383,0.810124
0.787349,0.867368,0.860297,0.810043
0.786876,0.867286,0.860211,0.809962
0.786404,0.867204,0.860125,0.809881
0.785932,0.867122,0.860039,0.8098
0.785461,0.867041,0.859953,0.809719
0.785382,0.866959,0.859867,0.809638
0.785304,0.866877,0.885575,0.809557
0.784833,0.866795,0.885486,0.809476
0.784362,0.866714,0.885397,0.809395
0.783891,0.866632,0.885309,0.809314
0.783421,0.86655,0.88522,0.809233
0.782951,0.866469,0.885132,0.809152
0.782481,0.866387,0.885043,0.809071
0.782012,0.866305,0.884955,0.80899
0.781543,0.866223,0.884866,0.808909
0.781074,0.866142,0.884778,0.808828
0.780605,0.86606,0.884689,0.808747
0.780137,0.865978,0.884601,0.808667
0.779669,0.865897,0.884512,0.808586
0.779201,0.865815,0.884424,0.808505
0.778733,0.865733,0.884336,0.808424
0.778266,0.865652,0.884247,0.808343
0.777799,0.86557,0.884159,0.808262
0.777333,0.865489,0.88407,0.808182
0.776866,0.865407,0.883982,0.808101
0.776789,0.865325,0.883893,0.80802
0.776711,0.865244,0.910319,0.807939
0.776245,0.865162,0.910228,0.807858
0.775779,0.865081,0.910137,0.807778
0.775314,0.864999,0.910046,0.807697
0.774849,0.864917,0.909955,0.807616
0.774384,0.864836,0.909864,0.807535
0.773919,0.864754,0.909773,0.807454
0.773455,0.864673,0.909682,0.807374
0.772991,0.864591,0.909591,0.807293
0.772527,0.86451,0.9095,0.807212
0.772064,0.864428,0.909409,0.807132
0.7716,0.864347,0.909318,0.807051
0.771138,0.864265,0.909227,0.80697
0.770675,0.864184,0.909136,0.806889
0.770213,0.864102,0.909046,0.806809
0.76975,0.864021,0.908955,0.806728
0.769289,0.863939,0.908864,0.806647
0.768827,0.863858,0.908773,0.806567
0.768366,0.863776,0.908682,0.806486
0.767905,0.863695,0.908591,0.806405
0.767444,0.863613,0.9085,0.806325
0.766984,0.863532,0.908409,0.806244
0.766524,0.863451,0.908319,0.806163
0.766064,0.863369,0.908228,0.806083
0.765987,0.863288,0.908137,0.806002
0.76591,0.863206,0.935288,0.805922
0.765451,0.863125,0.935194,0.805841
0.764992,0.863044,0.9351,0.80576
0.764533,0.862962,0.935007,0.80568
0.764074,0.862881,0.934913,0.805599
0.763616,0.862799,0.93482,0.805519
0.763158,0.862718,0.934726,0.805438
0.7627,0.862637,0.934633,0.805358
0.762242,0.862555,0.93454,0.805277
0.761785,0.862474,0.934446,0.805197
0.761328,0.862393,0.934353,0.805116
0.760871,0.862311,0.934259,0.805036
0.760415,0.86223,0.934166,0.804955
0.759958,0.862149,0.934072,0.804875
0.759502,0.862068,0.933979,0.804794
0.759047,0.861986,0.933886,0.804714
0.758591,0.861905,0.933792,0.804633
0.758515,0.861824,0.933699,0.804553
0.75844,0.861742,0.961614,0.804472
0.757985,0.861661,0.961517,0.804392
0.75753,0.86158,0.961421,0.804311
0.757075,0.861499,0.961325,0.804231
0.756621,0.861417,0.961229,0.804151
0.756167,0.861336,0.961133,0.80407
0.755714,0.861255,0.961037,0.80399
0.75526,0.861174,0.960941,0.803909
0.754807,0.861093,0.960845,0.803829
0.754354,0.861011,0.960748,0.803749
0.753902,0.86093,0.960652,0.803668
0.753449,0.860849,0.960556,0.803588
0.752997,0.860768,0.96046,0.803507
0.752546,0.860687,0.960364,0.803427
0.752094,0.860605,0.960268,0.803347
0.751643,0.860524,0.960172,0.803266
0.751192,0.860443,0.960076,0.803186
0.750741,0.860362,0.95998,0.803106
0.750291,0.860281,0.959884,0.803025
0.749841,0.8602,0.959788,0.802945
0.749391,0.860119,0.959692,0.802865
0.748941,0.860038,0.959596,0.802785
0.748492,0.859956,0.9595,0.802704
0.748043,0.859875,0.959404,0.802624
0.747594,0.859794,0.959308,0.802544
0.747146,0.859713,0.959212,0.802463
0.746697,0.859632,0.959117,0.802383
0.746249,0.859551,0.959021,0.802303
0.745802,0.85947,0.958925,0.802223
0.745354,0.859389,0.958829,0.802143
0.744907,0.859308,0.958733,0.802062
0.74446,0.859227,0.958637,0.801982
0.744013,0.859146,0.958541,0.801902
0.743567,0.859065,0.958445,0.801822
0.743121,0.858984,0.958349,0.801742
0.742675,0.858903,0.958254,0.801661
0.74223,0.858822,0.958158,0.801581
0.741784,0.858741,0.958062,0.801501
0.741339,0.85866,0.957966,0.801421
0.740894,0.858579,0.95787,0.801341
0.74045,0.858498,0.957775,0.801261
0.740006,0.858417,0.957679,0.80118
0.739562,0.858336,0.957583,0.8011
0.739118,0.858255,0.957487,0.80102
0.738675,0.858174,0.957392,0.80094
0.738231,0.858093,0.957296,0.80086
0.737789,0.858012,0.9572,0.80078
0.737346,0.857932,0.957104,0.8007
0.736904,0.857851,0.957009,0.80062
0.736461,0.85777,0.956913,0.80054
0.73602,0.857689,0.956817,0.80046
0.735578,0.857608,0.956722,0.80038
0.735137,0.857527,0.956626,0.8003
0.734696,0.857446,0.95653,0.80022
0.734622,0.857365,0.956435,0.80014
0.734549,0.857285,0.985029,0.80006
0.734108,0.857204,0.984931,0.79998
0.733668,0.857123,0.984832,0.7999
0.733227,0.857042,0.984734,0.79982
0.732788,0.856961,0.984635,0.79974
0.732348,0.85688,0.984537,0.79966
0.731909,0.8568,0.984438,0.79958
0.731469,0.856719,0.98434,0.7995
0.731031,0.856638,0.984241,0.79942
0.730592,0.856557,0.984143,0.79934
0.730154,0.856477,0.984045,0.79926
0.729716,0.856396,0.983946,0.79918
0.729278,0.856315,0.983848,0.7991
0.72884,0.856234,0.983749,0.79902
0.728403,0.856154,0.983651,0.79894
0.727966,0.856073,0.983553,0.79886
0.727529,0.855992,0.983454,0.79878
0.727093,0.855911,0.983356,0.798701
0.726657,0.855831,0.983258,0.798621
0.726221,0.85575,0.983159,0.798541
0.725785,0.855669,0.983061,0.798461
0.725349,0.855589,0.982963,0.798381
0.724914,0.855508,0.982864,0.798301
0.724479,0.855427,0.982766,0.798221
0.724045,0.855347,0.982668,0.798142
0.72361,0.855266,0.98257,0.798062
0.723176,0.855185,0.982471,0.797982
0.722742,0.855105,0.982373,0.797902
0.722309,0.855024,0.982275,0.797822
0.721875,0.854943,0.982177,0.797743
0.721442,0.854863,0.982078,0.797663
0.721009,0.854782,0.98198,0.797583
0.720937,0.854702,0.981882,0.797503
0.720865,0.854621,1,0.797424
0.720433,0.85454,0.9999,0.797344
0.720001,0.85446,0.9998,0.797264
0.719569,0.854379,0.9997,0.797184
0.719137,0.854299,0.9996,0.797105
0.718705,0.854218,0.9995,0.797025
0.718274,0.854138,0.9994,0.796945
0.717843,0.854057,0.9993,0.796866
0.717413,0.853976,0.9992,0.796786
0.716982,0.853896,0.9991,0.796706
0.716552,0.853815,0.999,0.796627
0.716122,0.853735,0.998901,0.796547
0.715693,0.853654,0.998801,0.796467
0.715263,0.853574,0.998701,0.796388
0.714834,0.853493,0.998601,0.796308
0.714405,0.853413,0.998501,0.796228
0.713977,0.853332,0.998401,0.796149
0.713548,0.853252,0.998301,0.796069
0.71312,0.853172,0.998202,0.795989
0.712692,0.853091,0.998102,0.79591
0.712265,0.853011,0.998002,0.79583
0.711837,0.85293,0.997902,0.795751
0.71141,0.85285,0.997802,0.795671
0.710984,0.852769,0.997703,0.795592
0.710557,0.852689,0.997603,0.795512
0.710486,0.852609,0.997503,0.795432
0.710415,0.852528,1,0.795353
0.709989,0.852448,0.9999,0.795273
0.709563,0.852367,0.9998,0.795194
0.709137,0.852287,0.9997,0.795114
0.708712,0.852207,0.9996,0.795035
0.708286,0.852126,0.9995,0.794955
0.707861,0.852046,0.9994,0.794876
0.707437,0.851966,0.9993,0.794796
0.707012,0.851885,0.9992,0.794717
0.706588,0.851805,0.9991,0.794637
0.706164,0.851725,0.999,0.794558
0.705741,0.851644,0.998901,0.794478
0.705317,0.851564,0.998801,0.794399
0.704894,0.851484,0.998701,0.79432
0.704471,0.851403,0.998601,0.79424
0.704048,0.851323,0.998501,0.794161
0.703978,0.851243,0.998401,0.794081
0.703908,0.851163,1,0.794002
0.703485,0.851082,0.9999,0.793922
0.703063,0.851002,0.9998,0.793843
0.702641,0.850922,0.9997,0.793764
0.70222,0.850842,0.9996,0.793684
0.701799,0.850761,0.9995,0.793605
0.701378,0.850681,0.9994,0.793526
0.700957,0.850601,0.9993,0.793446
0.700536,0.850521,0.9992,0.793367
0.700116,0.85044,0.9991,0.793288
0.699696,0.85036,0.999,0.793208
0.699276,0.85028,0.998901,0.793129
0.698857,0.8502,0.998801,0.79305
0.698437,0.85012,0.998701,0.79297
0.698018,0.85004,0.998601,0.792891
0.6976,0.849959,0.998501,0.792812
0.697181,0.849879,0.998401,0.792732
0.697111,0.849799,0.998301,0.792653
0.697042,0.849719,1,0.792574
0.696623,0.849639,0.9999,0.792495
0.696205,0.849559,0.9998,0.792415
0.695788,0.849479,0.9997,0.792336
0.69537,0.849399,0.9996,0.792257
0.694953,0.849318,0.9995,0.792178
0.694536,0.849238,0.9994,0.792098
0.69412,0.849158,0.9993,0.792019
0.693703,0.849078,0.9992,0.79194
0.693287,0.848998,0.9991,0.791861
0.693218,0.848918,0.999,0.791782
0.693148,0.848838,1,0.791702
0.692732,0.848758,0.9999,0.791623
0.692317,0.848678,0.9998,0.791544
0.691901,0.848598,0.9997,0.791465
0.691486,0.848518,0.9996,0.791386
0.691071,0.848438,0.9995,0.791307
0.690657,0.848358,0.9994,0.791228
0.690243,0.848278,0.9993,0.791148
0.689828,0.848198,0.9992,0.791069
0.689415,0.848118,0.9991,0.79099
0.689001,0.848038,0.999,0.790911
0.688588,0.847958,0.998901,0.790832
0.688174,0.847878,0.998801,0.790753
0.687762,0.847798,0.998701,0.790674
0.687349,0.847718,0.998601,0.790595
0.686937,0.847638,0.998501,0.790516
0.686524,0.847558,0.998401,0.790437
0.686113,0.847478,0.998301,0.790358
0.685701,0.847398,0.998202,0.790279
0.68529,0.847319,0.998102,0.7902
0.685221,0.847239,0.998002,0.790121
0.685152,0.847159,1,0.790042
0.684741,0.847079,0.9999,0.789963
0.684331,0.846999,0.9998,0.789884
0.68392,0.846919,0.9997,0.789805
0.68351,0.846839,0.9996,0.789726
0.6831,0.846759,0.9995,0.789647
0.68269,0.84668,0.9994,0.789568
0.68228,0.8466,0.9993,0.789489
0.681871,0.84652,0.9992,0.78941
0.681462,0.84644,0.9991,0.789331
0.681053,0.84636,0.999,0.789252
0.680644,0.84628,0.998901,0.789173
0.680236,0.846201,0.998801,0.789094
0.679828,0.846121,0.998701,0.789015
0.67942,0.846041,0.998601,0.788936
0.679012,0.845961,0.998501,0.788857
0.678605,0.845882,0.998401,0.788778
0.678198,0.845802,0.998301,0.7887
0.677791,0.845722,0.998202,0.788621
0.677384,0.845642,0.998102,0.788542
0.676978,0.845563,0.998002,0.788463
0.676572,0.845483,0.997902,0.788384
0.676166,0.845403,0.997802,0.788305
0.676098,0.845323,0.997703,0.788226
0.676031,0.845244,1,0.788148
0.675625,0.845164,0.9999,0.788069
0.67522,0.845084,0.9998,0.78799
0.674815,0.845005,0.9997,0.787911
0.67441,0.844925,0.9996,0.787832
0.674005,0.844845,0.9995,0.787754
0.673601,0.844766,0.9994,0.787675
0.673197,0.844686,0.9993,0.787596
0.672793,0.844606,0.9992,0.787517
0.672389,0.844527,0.9991,0.787439
0.671986,0.844447,0.999,0.78736
0.671583,0.844367,0.998901,0.787281
0.67118,0.844288,0.998801,0.787202
0.670777,0.844208,0.998701,0.787124
0.670375,0.844128,0.998601,0.787045
0.669972,0.844049,0.998501,0.786966
0.669571,0.843969,0.998401,0.786888
0.669169,0.84389,0.998301,0.786809
0.668767,0.84381,0.998202,0.78673
0.668366,0.843731,0.998102,0.786652
0.667965,0.843651,0.998002,0.786573
0.667564,0.843571,0.997902,0.786494
0.667164,0.843492,0.997802,0.786416
0.666764,0.843412,0.997703,0.786337
0.666364,0.843333,0.997603,0.786258
0.665964,0.843253,0.997503,0.78618
0.665564,0.843174,0.997403,0.786101
0.665165,0.843094,0.997304,0.786022
0.664766,0.843015,0.997204,0.785944
0.664367,0.842935,0.997104,0.785865
0.663968,0.842856,0.997004,0.785787
0.66357,0.842776,0.996905,0.785708
0.663172,0.842697,0.996805,0.785629
0.662774,0.842617,0.996705,0.785551
0.662377,0.842538,0.996606,0.785472
0.661979,0.842459,0.996506,0.785394
0.661582,0.842379,0.996406,0.785315
0.661516,0.8423,0.996307,0.785237
0.66145,0.84222,1,0.785158
0.661053,0.842141,0.9999,0.78508
0.660656,0.842061,0.9998,0.785001
0.66026,0.841982,0.9997,0.784923
0.659864,0.841903,0.9996,0.784844
0.659468,0.841823,0.9995,0.784766
0.659072,0.841744,0.9994,0.784687
0.658677,0.841664,0.9993,0.784609
0.658282,0.841585,0.9992,0.78453
0.657887,0.841506,0.9991,0.784452
0.657492,0.841426,0.999,0.784373
0.657098,0.841347,0.998901,0.784295
0.656703,0.841268,0.998801,0.784217
0.656638,0.841188,0.998701,0.784138
0.656572,0.841109,1,0.78406
0.656178,0.84103,0.9999,0.783981
0.655784,0.84095,0.9998,0.783903
0.655391,0.840871,0.9997,0.783825
0.654998,0.840792,0.9996,0.783746
0.654605,0.840713,0.9995,0.783668
0.654212,0.840633,0.9994,0.783589
0.65382,0.840554,0.9993,0.783511
0.653427,0.840475,0.9992,0.783433
0.653035,0.840395,0.9991,0.783354
0.652643,0.840316,0.999,0.783276
0.652252,0.840237,0.998901,0.783198
0.651861,0.840158,0.998801,0.783119
0.65147,0.840079,0.998701,0.783041
0.651079,0.839999,0.998601,0.782963
0.651014,0.83992,0.998501,0.782884
0.650948,0.839841,1,0.782806
0.650558,0.839762,0.9999,0.782728
0.650168,0.839683,0.9998,0.78265
0.649778,0.839603,0.9997,0.782571
0.649388,0.839524,0.9996,0.782493
0.648998,0.839445,0.9995,0.782415
0.648609,0.839366,0.9994,0.782337
0.64822,0.839287,0.9993,0.782258
0.647831,0.839208,0.9992,0.78218
0.647442,0.839128,0.9991,0.782102
0.647054,0.839049,0.999,0.782024
0.646665,0.83897,0.998901,0.781946
0.646277,0.838891,0.998801,0.781867
0.64589,0.838812,0.998701,0.781789
0.645502,0.838733,0.998601,0.781711
0.645115,0.838654,0.998501,0.781633
0.644728,0.838575,0.998401,0.781555
0.644341,0.838496,0.998301,0.781476
0.643955,0.838417,0.998202,0.781398
0.643568,0.838338,0.998102,0.78132
0.643182,0.838258,0.998002,0.781242
0.642796,0.838179,0.997902,0.781164
0.642411,0.8381,0.997802,0.781086
0.642346,0.838021,0.997703,0.781008
0.642282,0.837942,1,0.78093
0.641897,0.837863,0.9999,0.780851
0.641512,0.837784,0.9998,0.780773
0.641127,0.837705,0.9997,0.780695
0.640742,0.837626,0.9996,0.780617
0.640358,0.837547,0.9995,0.780539
0.639974,0.837468,0.9994,0.780461
0.63959,0.837389,0.9993,0.780383
0.639206,0.83731,0.9992,0.780305
0.638822,0.837232,0.9991,0.780227
0.638439,0.837153,0.999,0.780149
0.638056,0.837074,0.998901,0.780071
0.637673,0.836995,0.998801,0.779993
0.637291,0.836916,0.998701,0.779915
0.636908,0.836837,0.998601,0.779837
0.636845,0.836758,0.998501,0.779759
0.636781,0.836679,1,0.779681
0.636399,0.8366,0.9999,0.779603
0.636017,0.836521,0.9998,0.779525
0.635636,0.836442,0.9997,0.779447
0.635254,0.836363,0.9996,0.779369
0.634873,0.836285,0.9995,0.779291
0.634492,0.836206,0.9994,0.779213
0.634112,0.836127,0.9993,0.779135
0.633731,0.836048,0.9992,0.779058
0.633351,0.835969,0.9991,0.77898
0.632971,0.83589,0.999,0.778902
0.632591,0.835812,0.998901,0.778824
0.632212,0.835733,0.998801,0.778746
0.631832,0.835654,0.998701,0.778668
0.631453,0.835575,0.998601,0.77859
0.631074,0.835496,0.998501,0.778512
0.630696,0.835418,0.998401,0.778434
0.630317,0.835339,0.998301,0.778357
0.629939,0.83526,0.998202,0.778279
0.629561,0.835181,0.998102,0.778201
0.629184,0.835103,0.998002,0.778123
0.628806,0.835024,0.997902,0.778045
0.628429,0.834945,0.997802,0.777968
0.628052,0.834866,0.997703,0.77789
0.627675,0.834788,0.997603,0.777812
0.627299,0.834709,0.997503,0.777734
0.626922,0.83463,0.997403,0.777656
0.626546,0.834551,0.997304,0.777579
0.62617,0.834473,0.997204,0.777501
0.625794,0.834394,0.997104,0.777423
0.625419,0.834315,0.997004,0.777345
0.625044,0.834237,0.996905,0.777268
0.624669,0.834158,0.996805,0.77719
0.624294,0.834079,0.996705,0.777112
0.623919,0.834001,0.996606,0.777034
0.623545,0.833922,0.996506,0.776957
0.623171,0.833843,0.996406,0.776879
0.622797,0.833765,0.996307,0.776801
0.622424,0.833686,0.996207,0.776724
0.62205,0.833608,0.996107,0.776646
0.621677,0.833529,0.996008,0.776568
0.621304,0.83345,0.995908,0.776491
0.620931,0.833372,0.995809,0.776413
0.620559,0.833293,0.995709,0.776335
0.620186,0.833215,0.995609,0.776258
0.619814,0.833136,0.99551,0.77618
0.619442,0.833058,0.99541,0.776103
0.619071,0.832979,0.995311,0.776025
0.618699,0.8329,0.995211,0.775947
0.618328,0.832822,0.995112,0.77587
0.617957,0.832743,0.995012,0.775792
0.617586,0.832665,0.994913,0.775715
0.617216,0.832586,0.994813,0.775637
0.616846,0.832508,0.994714,0.775559
0.616476,0.832429,0.994614,0.775482
0.616414,0.832351,0.994515,0.775404
0.616352,0.832272,0.994415,0.775327
0.616291,0.832194,0.994316,0.775249
0.616229,0.832115,0.994216,0.775172
0.616167,0.832037,0.994117,0.775094
0.616106,0.831958,0.994018,0.775017
0.616044,0.83188,0.993918,0.774939
0.615983,0.831802,0.993819,0.774862
0.615921,0.831723,0.993719,0.774784
0.615859,0.831645,0.99362,0.774707
0.615798,0.831566,0.993521,0.774629
0.615736,0.831488,0.993421,0.774552
0.615675,0.831409,0.993322,0.774474
0.615613,0.831331,0.993223,0.774397
0.615552,0.831253,0.993123,0.774319
0.61549,0.831174,0.993024,0.774242
0.615428,0.831096,0.992925,0.774165
0.615367,0.831018,0.992826,0.774087
