energy,productivity,fun,hunger
0.812322,0.650907,0.900789,0.697401
0.812241,0.650862,0.92772,0.697331
0.811754,0.650818,0.927628,0.697261
0.811267,0.650774,0.927535,0.697192
0.81078,0.65073,0.927442,0.697122
0.810294,0.650686,0.927349,0.697052
0.809808,0.650642,0.927257,0.696982
0.809322,0.650597,0.927164,0.696913
0.808836,0.650553,0.927071,0.696843
0.808351,0.650509,0.926978,0.696773
0.807866,0.650465,0.926886,0.696704
0.807381,0.650421,0.926793,0.696634
0.806897,0.650377,0.9267,0.696564
0.806413,0.650333,0.926608,0.696495
0.805929,0.650288,0.926515,0.696425
0.805446,0.650244,0.926422,0.696355
0.804962,0.6502,0.92633,0.696286
0.804479,0.650156,0.926237,0.696216
0.803997,0.650112,0.926145,0.696147
0.803514,0.650068,0.926052,0.696077
0.803032,0.650024,0.925959,0.696007
0.802551,0.64998,0.925867,0.695938
0.802069,0.649936,0.925774,0.695868
0.801588,0.649891,0.925682,0.695799
0.801107,0.649847,0.925589,0.695729
0.800626,0.649803,0.925496,0.695659
0.800146,0.649759,0.925404,0.69559
0.799666,0.649715,0.925311,0.69552
0.799186,0.649671,0.925219,0.695451
0.798707,0.649627,0.925126,0.695381
0.798227,0.649583,0.925034,0.695312
0.797749,0.649539,0.924941,0.695242
0.79727,0.649495,0.924849,0.695173
0.796792,0.649451,0.924756,0.695103
0.796314,0.649406,0.924664,0.695034
0.796234,0.649362,0.924571,0.694964
0.796154,0.649318,0.952213,0.694895
0.795677,0.649274,0.952118,0.694825
0.795199,0.64923,0.952023,0.694756
0.794722,0.649186,0.951928,0.694686
0.794245,0.649142,0.951832,0.694617
0.793769,0.649098,0.951737,0.694547
0.793293,0.649054,0.951642,0.694478
0.792817,0.64901,0.951547,0.694408
0.792341,0.648966,0.951452,0.694339
0.791866,0.648922,0.951357,0.694269
0.791391,0.648878,0.951261,0.6942
0.790916,0.648834,0.951166,0.694131
0.790441,0.64879,0.951071,0.694061
0.789967,0.648746,0.950976,0.693992
0.789493,0.648702,0.950881,0.693922
0.78902,0.648658,0.950786,0.693853
0.788546,0.648614,0.950691,0.693784
0.788073,0.64857,0.950596,0.693714
0.7876,0.648526,0.950501,0.693645
0.787128,0.648482,0.950406,0.693575
0.786656,0.648438,0.950311,0.693506
0.786184,0.648394,0.950216,0.693437
0.785712,0.64835,0.950121,0.693367
0.785241,0.648306,0.950026,0.693298
0.785162,0.648262,0.949931,0.693229
0.785084,0.648218,0.978331,0.693159
0.784612,0.648174,0.978233,0.69309
0.784142,0.64813,0.978135,0.693021
0.783671,0.648086,0.978037,0.692951
0.783201,0.648042,0.977939,0.692882
0.782731,0.647998,0.977842,0.692813
0.782262,0.647954,0.977744,0.692744
0.781792,0.64791,0.977646,0.692674
0.781323,0.647866,0.977548,0.692605
0.780855,0.647822,0.977451,0.692536
0.780386,0.647778,0.977353,0.692467
0.779918,0.647734,0.977255,0.692397
0.77945,0.64769,0.977157,0.692328
0.778982,0.647646,0.97706,0.692259
0.778515,0.647602,0.976962,0.69219
0.778048,0.647558,0.976864,0.69212
0.777581,0.647514,0.976766,0.692051
0.777115,0.64747,0.976669,0.691982
0.776648,0.647426,0.976571,0.691913
0.776182,0.647382,0.976473,0.691844
0.775717,0.647339,0.976376,0.691774
0.775251,0.647295,0.976278,0.691705
0.774786,0.647251,0.976181,0.691636
0.774709,0.647207,0.976083,0.691567
0.774631,0.647163,1,0.691498
0.774167,0.647119,0.9999,0.691429
0.773702,0.647075,0.9998,0.691359
0.773238,0.647031,0.9997,0.69129
0.772774,0.646987,0.9996,0.691221
0.77231,0.646943,0.9995,0.691152
0.771847,0.646899,0.9994,0.691083
0.771384,0.646856,0.9993,0.691014
0.770921,0.646812,0.9992,0.690945
0.770459,0.646768,0.9991,0.690876
0.769996,0.646724,0.999,0.690807
0.769534,0.64668,0.998901,0.690737
0.769073,0.646636,0.998801,0.690668
0.768611,0.646592,0.998701,0.690599
0.76815,0.646548,0.998601,0.69053
0.767689,0.646504,0.998501,0.690461
0.767229,0.646461,0.998401,0.690392
0.766769,0.646417,0.998301,0.690323
0.766309,0.646373,0.998202,0.690254
0.765849,0.646329,0.998102,0.690185
0.765389,0.646285,0.998002,0.690116
0.76493,0.646241,0.997902,0.690047
0.764471,0.646197,0.997802,0.689978
0.764013,0.646154,0.997703,0.689909
0.763554,0.64611,0.997603,0.68984
0.763096,0.646066,0.997503,0.689771
0.762638,0.646022,0.997403,0.689702
0.762181,0.645978,0.997304,0.689633
0.761723,0.645934,0.997204,0.689564
0.761266,0.645891,0.997104,0.689495
0.76081,0.645847,0.997004,0.689426
0.760353,0.645803,0.996905,0.689357
0.759897,0.645759,0.996805,0.689288
0.759821,0.645715,0.996705,0.689219
0.759745,0.645671,1,0.68915
0.759289,0.645628,0.9999,0.689082
0.758834,0.645584,0.9998,0.689013
0.758379,0.64554,0.9997,0.688944
0.757924,0.645496,0.9996,0.688875
0.757469,0.645452,0.9995,0.688806
0.757014,0.645409,0.9994,0.688737
0.75656,0.645365,0.9993,0.688668
0.756106,0.645321,0.9992,0.688599
0.755653,0.645277,0.9991,0.688531
0.755199,0.645233,0.999,0.688462
0.754746,0.64519,0.998901,0.688393
0.754293,0.645146,0.998801,0.688324
0.753841,0.645102,0.998701,0.688255
0.753389,0.645058,0.998601,0.688186
0.752937,0.645015,0.998501,0.688117
0.752485,0.644971,0.998401,0.688049
0.752033,0.644927,0.998301,0.68798
0.751582,0.644883,0.998202,0.687911
0.751131,0.644839,0.998102,0.687842
0.750681,0.644796,0.998002,0.687774
0.75023,0.644752,0.997902,0.687705
0.74978,0.644708,0.997802,0.687636
0.74933,0.644664,0.997703,0.687567
0.748881,0.644621,0.997603,0.687498
0.748432,0.644577,0.997503,0.68743
0.747983,0.644533,0.997403,0.687361
0.747908,0.644489,0.997304,0.687292
0.747833,0.644446,1,0.687223
0.747384,0.644402,0.9999,0.687155
0.746936,0.644358,0.9998,0.687086
0.746488,0.644315,0.9997,0.687017
0.74604,0.644271,0.9996,0.686949
0.745592,0.644227,0.9995,0.68688
0.745145,0.644183,0.9994,0.686811
0.744698,0.64414,0.9993,0.686743
0.744251,0.644096,0.9992,0.686674
0.743805,0.644052,0.9991,0.686605
0.743358,0.644009,0.999,0.686537
0.742912,0.643965,0.998901,0.686468
0.742467,0.643921,0.998801,0.686399
0.742021,0.643877,0.998701,0.686331
0.741576,0.643834,0.998601,0.686262
0.741131,0.64379,0.998501,0.686193
0.740687,0.643746,0.998401,0.686125
0.740242,0.643703,0.998301,0.686056
0.739798,0.643659,0.998202,0.685988
0.739354,0.643615,0.998102,0.685919
0.738911,0.643572,0.998002,0.68585
0.738837,0.643528,0.997902,0.685782
0.738763,0.643484,1,0.685713
0.73832,0.643441,0.9999,0.685645
0.737877,0.643397,0.9998,0.685576
0.737434,0.643353,0.9997,0.685507
0.736992,0.64331,0.9996,0.685439
0.736549,0.643266,0.9995,0.68537
0.736108,0.643222,0.9994,0.685302
0.735666,0.643179,0.9993,0.685233
0.735225,0.643135,0.9992,0.685165
0.734783,0.643091,0.9991,0.685096
0.734343,0.643048,0.999,0.685028
0.733902,0.643004,0.998901,0.684959
0.733462,0.642961,0.998801,0.684891
0.733022,0.642917,0.998701,0.684822
0.732582,0.642873,0.998601,0.684754
0.732142,0.64283,0.998501,0.684685
0.731703,0.642786,0.998401,0.684617
0.731264,0.642742,0.998301,0.684548
0.730825,0.642699,0.998202,0.68448
0.730387,0.642655,0.998102,0.684411
0.729949,0.642612,0.998002,0.684343
0.729511,0.642568,0.997902,0.684275
0.729073,0.642524,0.997802,0.684206
0.728636,0.642481,0.997703,0.684138
0.728199,0.642437,0.997603,0.684069
0.727762,0.642394,0.997503,0.684001
0.727325,0.64235,0.997403,0.683933
0.726889,0.642306,0.997304,0.683864
0.726453,0.642263,0.997204,0.683796
0.726017,0.642219,0.997104,0.683727
0.725581,0.642176,0.997004,0.683659
0.725146,0.642132,0.996905,0.683591
0.724711,0.642089,0.996805,0.683522
0.724276,0.642045,0.996705,0.683454
0.723842,0.642001,0.996606,0.683386
0.723407,0.641958,0.996506,0.683317
0.723335,0.641914,0.996406,0.683249
0.723263,0.641871,1,0.683181
0.722829,0.641827,0.9999,0.683112
0.722395,0.641784,0.9998,0.683044
0.721962,0.64174,0.9997,0.682976
0.721529,0.641697,0.9996,0.682907
0.721096,0.641653,0.9995,0.682839
0.720663,0.641609,0.9994,0.682771
0.720231,0.641566,0.9993,0.682703
0.719799,0.641522,0.9992,0.682634
0.719367,0.641479,0.9991,0.682566
0.718935,0.641435,0.999,0.682498
0.718504,0.641392,0.998901,0.682429
0.718073,0.641348,0.998801,0.682361
0.717642,0.641305,0.998701,0.682293
0.717211,0.641261,0.998601,0.682225
0.716781,0.641218,0.998501,0.682157
0.716351,0.641174,0.998401,0.682088
0.715921,0.641131,0.998301,0.68202
0.715492,0.641087,0.998202,0.681952
0.715063,0.641044,0.998102,0.681884
0.714634,0.641,0.998002,0.681816
0.714205,0.640957,0.997902,0.681747
0.713776,0.640913,0.997802,0.681679
0.713348,0.64087,0.997703,0.681611
0.713277,0.640826,0.997603,0.681543
0.713205,0.640783,1,0.681475
0.712778,0.640739,0.9999,0.681407
0.71235,0.640696,0.9998,0.681338
0.711923,0.640652,0.9997,0.68127
0.711495,0.640609,0.9996,0.681202
0.711069,0.640565,0.9995,0.681134
0.710642,0.640522,0.9994,0.681066
0.710216,0.640478,0.9993,0.680998
0.709789,0.640435,0.9992,0.68093
0.709364,0.640391,0.9991,0.680862
0.708938,0.640348,0.999,0.680794
0.708513,0.640305,0.998901,0.680725
0.708088,0.640261,0.998801,0.680657
0.707663,0.640218,0.998701,0.680589
0.707238,0.640174,0.998601,0.680521
0.706814,0.640131,0.998501,0.680453
0.70639,0.640087,0.998401,0.680385
0.705966,0.640044,0.998301,0.680317
0.705543,0.64,0.998202,0.680249
0.705119,0.639957,0.998102,0.680181
0.705049,0.639914,0.998002,0.680113
0.704978,0.63987,1,0.680045
0.704555,0.639827,0.9999,0.679977
0.704133,0.639783,0.9998,0.679909
0.70371,0.63974,0.9997,0.679841
0.703288,0.639697,0.9996,0.679773
0.702866,0.639653,0.9995,0.679705
0.702444,0.63961,0.9994,0.679637
0.702023,0.639566,0.9993,0.679569
0.701602,0.639523,0.9992,0.679501
0.701181,0.63948,0.9991,0.679433
0.70076,0.639436,0.999,0.679365
0.70034,0.639393,0.998901,0.679297
0.69992,0.639349,0.998801,0.679229
0.6995,0.639306,0.998701,0.679161
0.69908,0.639263,0.998601,0.679094
0.698661,0.639219,0.998501,0.679026
0.698241,0.639176,0.998401,0.678958
0.697823,0.639132,0.998301,0.67889
0.697404,0.639089,0.998202,0.678822
0.696985,0.639046,0.998102,0.678754
0.696567,0.639002,0.998002,0.678686
0.696149,0.638959,0.997902,0.678618
0.695732,0.638916,0.997802,0.67855
0.695314,0.638872,0.997703,0.678483
0.694897,0.638829,0.997603,0.678415
0.69448,0.638786,0.997503,0.678347
0.694064,0.638742,0.997403,0.678279
0.693647,0.638699,0.997304,0.678211
0.693231,0.638656,0.997204,0.678143
0.692815,0.638612,0.997104,0.678076
0.692399,0.638569,0.997004,0.678008
0.691984,0.638526,0.996905,0.67794
0.691569,0.638482,0.996805,0.677872
0.691154,0.638439,0.996705,0.677804
0.690739,0.638396,0.996606,0.677737
0.690325,0.638352,0.996506,0.677669
0.689911,0.638309,0.996406,0.677601
0.689497,0.638266,0.996307,0.677533
0.689083,0.638222,0.996207,0.677466
0.68867,0.638179,0.996107,0.677398
0.688257,0.638136,0.996008,0.67733
0.688188,0.638092,0.995908,0.677262
0.688119,0.638049,1,0.677195
0.687706,0.638006,0.9999,0.677127
0.687294,0.637963,0.9998,0.677059
0.686881,0.637919,0.9997,0.676992
0.686469,0.637876,0.9996,0.676924
0.686057,0.637833,0.9995,0.676856
0.685646,0.637789,0.9994,0.676788
0.685234,0.637746,0.9993,0.676721
0.684823,0.637703,0.9992,0.676653
0.684412,0.63766,0.9991,0.676585
0.684002,0.637616,0.999,0.676518
0.683591,0.637573,0.998901,0.67645
0.683181,0.63753,0.998801,0.676382
0.682771,0.637486,0.998701,0.676315
0.682362,0.637443,0.998601,0.676247
0.681952,0.6374,0.998501,0.67618
0.681543,0.637357,0.998401,0.676112
0.681475,0.637313,0.998301,0.676044
0.681407,0.63727,1,0.675977
0.680998,0.637227,0.9999,0.675909
0.68059,0.637184,0.9998,0.675842
0.680181,0.63714,0.9997,0.675774
0.679773,0.637097,0.9996,0.675706
0.679365,0.637054,0.9995,0.675639
0.678958,0.637011,0.9994,0.675571
0.67855,0.636968,0.9993,0.675504
0.678143,0.636924,0.9992,0.675436
0.677736,0.636881,0.9991,0.675369
0.67733,0.636838,0.999,0.675301
0.676923,0.636795,0.998901,0.675234
0.676856,0.636751,0.998801,0.675166
0.676788,0.636708,1,0.675099
0.676382,0.636665,0.9999,0.675031
0.675976,0.636622,0.9998,0.674964
0.675571,0.636579,0.9997,0.674896
0.675165,0.636535,0.9996,0.674829
0.67476,0.636492,0.9995,0.674761
0.674356,0.636449,0.9994,0.674694
0.673951,0.636406,0.9993,0.674626
0.673547,0.636363,0.9992,0.674559
0.673143,0.63632,0.9991,0.674491
0.673075,0.636276,0.999,0.674424
0.673008,0.636233,1,0.674356
0.672604,0.63619,0.9999,0.674289
0.672201,0.636147,0.9998,0.674221
0.671797,0.636104,0.9997,0.674154
0.671394,0.636061,0.9996,0.674087
0.670991,0.636017,0.9995,0.674019
0.670589,0.635974,0.9994,0.673952
0.670187,0.635931,0.9993,0.673884
0.669785,0.635888,0.9992,0.673817
0.669383,0.635845,0.9991,0.67375
0.668981,0.635802,0.999,0.673682
0.66858,0.635758,0.998901,0.673615
0.668179,0.635715,0.998801,0.673548
0.667778,0.635672,0.998701,0.67348
0.667377,0.635629,0.998601,0.673413
0.666977,0.635586,0.998501,0.673345
0.666577,0.635543,0.998401,0.673278
0.666177,0.6355,0.998301,0.673211
0.665777,0.635457,0.998202,0.673143
0.665378,0.635413,0.998102,0.673076
0.664978,0.63537,0.998002,0.673009
0.664579,0.635327,0.997902,0.672942
0.664181,0.635284,0.997802,0.672874
0.663782,0.635241,0.997703,0.672807
0.663384,0.635198,0.997603,0.67274
0.662986,0.635155,0.997503,0.672672
0.662588,0.635112,0.997403,0.672605
0.662191,0.635069,0.997304,0.672538
0.661793,0.635025,0.997204,0.672471
0.661396,0.634982,0.997104,0.672403
0.661,0.634939,0.997004,0.672336
0.660603,0.634896,0.996905,0.672269
0.660207,0.634853,0.996805,0.672202
0.659811,0.63481,0.996705,0.672134
0.659415,0.634767,0.996606,0.672067
0.659019,0.634724,0.996506,0.672
0.658624,0.634681,0.996406,0.671933
0.658229,0.634638,0.996307,0.671866
0.657834,0.634595,0.996207,0.671798
0.657439,0.634552,0.996107,0.671731
0.657373,0.634509,0.996008,0.671664
0.657308,0.634465,1,0.671597
0.656913,0.634422,0.9999,0.67153
0.656519,0.634379,0.9998,0.671463
0.656125,0.634336,0.9997,0.671395
0.655732,0.634293,0.9996,0.671328
0.655338,0.63425,0.9995,0.671261
0.654945,0.634207,0.9994,0.671194
0.654552,0.634164,0.9993,0.671127
0.654159,0.634121,0.9992,0.67106
0.653767,0.634078,0.9991,0.670993
0.653375,0.634035,0.999,0.670926
0.652983,0.633992,0.998901,0.670859
0.652591,0.633949,0.998801,0.670791
0.652199,0.633906,0.998701,0.670724
0.651808,0.633863,0.998601,0.670657
0.651417,0.63382,0.998501,0.67059
0.651026,0.633777,0.998401,0.670523
0.650636,0.633734,0.998301,0.670456
0.650245,0.633691,0.998202,0.670389
0.649855,0.633648,0.998102,0.670322
0.649465,0.633605,0.998002,0.670255
0.649076,0.633562,0.997902,0.670188
0.648686,0.633519,0.997802,0.670121
0.648297,0.633476,0.997703,0.670054
0.647908,0.633433,0.997603,0.669987
0.647519,0.63339,0.997503,0.66992
0.647131,0.633347,0.997403,0.669853
0.646743,0.633304,0.997304,0.669786
0.646355,0.633261,0.997204,0.669719
0.645967,0.633218,0.997104,0.669652
0.645579,0.633175,0.997004,0.669585
0.645192,0.633132,0.996905,0.669518
0.644805,0.633089,0.996805,0.669451
0.644418,0.633046,0.996705,0.669384
0.644031,0.633003,0.996606,0.669317
0.643645,0.63296,0.996506,0.66925
0.643259,0.632917,0.996406,0.669183
0.642873,0.632874,0.996307,0.669117
0.642487,0.632832,0.996207,0.66905
0.642102,0.632789,0.996107,0.668983
0.641717,0.632746,0.996008,0.668916
0.641332,0.632703,0.995908,0.668849
0.640947,0.63266,0.995809,0.668782
0.640562,0.632617,0.995709,0.668715
0.640178,0.632574,0.995609,0.668648
0.639794,0.632531,0.99551,0.668581
0.63941,0.632488,0.99541,0.668515
0.639026,0.632445,0.995311,0.668448
0.638643,0.632402,0.995211,0.668381
0.638579,0.632359,0.995112,0.668314
0.638515,0.632316,1,0.668247
0.638132,0.632273,0.9999,0.66818
0.637749,0.632231,0.9998,0.668114
0.637367,0.632188,0.9997,0.668047
0.636984,0.632145,0.9996,0.66798
0.636602,0.632102,0.9995,0.667913
0.63622,0.632059,0.9994,0.667846
0.635839,0.632016,0.9993,0.66778
0.635457,0.631973,0.9992,0.667713
0.635076,0.63193,0.9991,0.667646
0.634695,0.631887,0.999,0.667579
0.634314,0.631845,0.998901,0.667512
0.633934,0.631802,0.998801,0.667446
0.633553,0.631759,0.998701,0.667379
0.633173,0.631716,0.998601,0.667312
0.632793,0.631673,0.998501,0.667246
0.63273,0.63163,0.998401,0.667179
0.632667,0.631587,1,0.667112
0.632287,0.631544,0.9999,0.667045
0.631908,0.631502,0.9998,0.666979
0.631529,0.631459,0.9997,0.666912
0.63115,0.631416,0.9996,0.666845
0.630771,0.631373,0.9995,0.666779
0.630393,0.63133,0.9994,0.666712
0.630015,0.631287,0.9993,0.666645
0.629637,0.631245,0.9992,0.666579
0.629259,0.631202,0.9991,0.666512
0.628881,0.631159,0.999,0.666445
0.628504,0.631116,0.998901,0.666379
0.628127,0.631073,0.998801,0.666312
0.62775,0.63103,0.998701,0.666245
0.627373,0.630988,0.998601,0.666179
0.626997,0.630945,0.998501,0.666112
0.626621,0.630902,0.998401,0.666045
0.626245,0.630859,0.998301,0.665979
0.625869,0.630816,0.998202,0.665912
0.625494,0.630774,0.998102,0.665846
0.625118,0.630731,0.998002,0.665779
0.624743,0.630688,0.997902,0.665713
0.624369,0.630645,0.997802,0.665646
0.623994,0.630602,0.997703,0.665579
0.62362,0.63056,0.997603,0.665513
0.623246,0.630517,0.997503,0.665446
0.622872,0.630474,0.997403,0.66538
0.622498,0.630431,0.997304,0.665313
0.622124,0.630388,0.997204,0.665247
0.621751,0.630346,0.997104,0.66518
0.621378,0.630303,0.997004,0.665114
0.621005,0.63026,0.996905,0.665047
0.620633,0.630217,0.996805,0.664981
0.62026,0.630175,0.996705,0.664914
0.619888,0.630132,0.996606,0.664848
0.619516,0.630089,0.996506,0.664781
0.619145,0.630046,0.996406,0.664715
0.618773,0.630004,0.996307,0.664648
0.618402,0.629961,0.996207,0.664582
0.618031,0.629918,0.996107,0.664515
0.61766,0.629875,0.996008,0.664449
0.61729,0.629833,0.995908,0.664382
0.616919,0.62979,0.995809,0.664316
0.616549,0.629747,0.995709,0.66425
0.616488,0.629704,0.995609,0.664183
0.616426,0.629662,1,0.664117
0.616056,0.629619,0.9999,0.66405
0.615687,0.629576,0.9998,0.663984
0.615317,0.629533,0.9997,0.663917
0.614948,0.629491,0.9996,0.663851
0.614579,0.629448,0.9995,0.663785
0.61421,0.629405,0.9994,0.663718
0.613842,0.629363,0.9993,0.663652
0.613474,0.62932,0.9992,0.663586
0.613105,0.629277,0.9991,0.663519
0.612738,0.629234,0.999,0.663453
0.61237,0.629192,0.998901,0.663386
0.612003,0.629149,0.998801,0.66332
0.611635,0.629106,0.998701,0.663254
0.611269,0.629064,0.998601,0.663187
0.610902,0.629021,0.998501,0.663121
0.610535,0.628978,0.998401,0.663055
0.610169,0.628936,0.998301,0.662989
0.609803,0.628893,0.998202,0.662922
0.609437,0.62885,0.998102,0.662856
0.609071,0.628808,0.998002,0.66279
0.608706,0.628765,0.997902,0.662723
0.608341,0.628722,0.997802,0.662657
0.607976,0.62868,0.997703,0.662591
0.607611,0.628637,0.997603,0.662525
0.607247,0.628594,0.997503,0.662458
0.606882,0.628552,0.997403,0.662392
0.606518,0.628509,0.997304,0.662326
0.606458,0.628466,0.997204,0.66226
0.606397,0.628424,1,0.662193
0.606033,0.628381,0.9999,0.662127
0.605669,0.628338,0.9998,0.662061
0.605306,0.628296,0.9997,0.661995
0.604943,0.628253,0.9996,0.661929
0.60458,0.628211,0.9995,0.661862
0.604217,0.628168,0.9994,0.661796
0.603855,0.628125,0.9993,0.66173
0.603493,0.628083,0.9992,0.661664
0.60313,0.62804,0.9991,0.661598
0.602769,0.627997,0.999,0.661532
0.602407,0.627955,0.998901,0.661465
0.602046,0.627912,0.998801,0.661399
0.601684,0.62787,0.998701,0.661333
0.601323,0.627827,0.998601,0.661267
0.600963,0.627784,0.998501,0.661201
0.600602,0.627742,0.998401,0.661135
0.600242,0.627699,0.998301,0.661069
0.599882,0.627657,0.998202,0.661002
0.599522,0.627614,0.998102,0.660936
0.599162,0.627571,0.998002,0.66087
0.599102,0.627529,0.997902,0.660804
0.599042,0.627486,1,0.660738
0.598683,0.627444,0.9999,0.660672
0.598324,0.627401,0.9998,0.660606
0.597965,0.627358,0.9997,0.66054
0.597606,0.627316,0.9996,0.660474
0.597247,0.627273,0.9995,0.660408
0.596889,0.627231,0.9994,0.660342
0.596531,0.627188,0.9993,0.660276
0.596173,0.627146,0.9992,0.66021
0.595815,0.627103,0.9991,0.660144
0.595458,0.627061,0.999,0.660078
0.595101,0.627018,0.998901,0.660012
0.594744,0.626975,0.998801,0.659946
0.594387,0.626933,0.998701,0.65988
0.59403,0.62689,0.998601,0.659814
0.593674,0.626848,0.998501,0.659748
0.593318,0.626805,0.998401,0.659682
0.592962,0.626763,0.998301,0.659616
0.592606,0.62672,0.998202,0.65955
0.59225,0.626678,0.998102,0.659484
0.591895,0.626635,0.998002,0.659418
0.59154,0.626593,0.997902,0.659352
0.591185,0.62655,0.997802,0.659286
0.59083,0.626508,0.997703,0.65922
0.590476,0.626465,0.997603,0.659154
0.590122,0.626423,0.997503,0.659088
0.589768,0.62638,0.997403,0.659022
0.589414,0.626338,0.997304,0.658956
0.58906,0.626295,0.997204,0.658891
0.588707,0.626253,0.997104,0.658825
0.588354,0.62621,0.997004,0.658759
0.588001,0.626168,0.996905,0.658693
0.587648,0.626125,0.996805,0.658627
