energy,productivity,fun,hunger
0.839311,0.717128,0.860814,0.72628
0.839227,0.717071,0.88655,0.726207
0.838724,0.717013,0.886461,0.726134
0.838221,0.716955,0.886372,0.726062
0.837718,0.716897,0.886284,0.725989
0.837215,0.716839,0.886195,0.725916
0.836713,0.716781,0.886106,0.725844
0.836211,0.716723,0.886018,0.725771
0.835709,0.716666,0.885929,0.725699
0.835208,0.716608,0.885841,0.725626
0.834707,0.71655,0.885752,0.725554
0.834206,0.716492,0.885663,0.725481
0.833705,0.716434,0.885575,0.725408
0.833205,0.716377,0.885486,0.725336
0.832705,0.716319,0.885398,0.725263
0.832206,0.716261,0.885309,0.725191
0.831707,0.716203,0.885221,0.725118
0.831208,0.716145,0.885132,0.725046
0.830709,0.716088,0.885044,0.724973
0.83021,0.71603,0.884955,0.724901
0.829712,0.715972,0.884867,0.724828
0.829215,0.715914,0.884778,0.724756
0.828717,0.715856,0.88469,0.724683
0.82822,0.715799,0.884601,0.724611
0.827723,0.715741,0.884513,0.724538
0.827226,0.715683,0.884424,0.724466
0.82673,0.715625,0.884336,0.724394
0.826234,0.715568,0.884247,0.724321
0.825738,0.71551,0.884159,0.724249
0.825243,0.715452,0.884071,0.724176
0.824748,0.715394,0.883982,0.724104
0.824253,0.715337,0.883894,0.724031
0.823759,0.715279,0.883805,0.723959
0.823264,0.715221,0.883717,0.723887
0.82277,0.715164,0.883629,0.723814
0.822277,0.715106,0.88354,0.723742
0.821784,0.715048,0.883452,0.723669
0.821291,0.71499,0.883364,0.723597
0.820798,0.714933,0.883275,0.723525
0.820305,0.714875,0.883187,0.723452
0.819813,0.714817,0.883099,0.72338
0.819321,0.71476,0.88301,0.723308
0.81883,0.714702,0.882922,0.723235
0.818339,0.714644,0.882834,0.723163
0.817848,0.714587,0.882745,0.723091
0.817357,0.714529,0.882657,0.723018
0.816867,0.714471,0.882569,0.722946
0.816376,0.714414,0.882481,0.722874
0.815887,0.714356,0.882392,0.722802
0.815397,0.714298,0.882304,0.722729
0.814908,0.714241,0.882216,0.722657
0.814419,0.714183,0.882128,0.722585
0.81393,0.714125,0.882039,0.722512
0.813442,0.714068,0.881951,0.72244
0.812954,0.71401,0.881863,0.722368
0.812466,0.713953,0.881775,0.722296
0.811979,0.713895,0.881687,0.722224
0.811492,0.713837,0.881599,0.722151
0.811005,0.71378,0.88151,0.722079
0.810518,0.713722,0.881422,0.722007
0.810032,0.713665,0.881334,0.721935
0.809546,0.713607,0.881246,0.721862
0.80906,0.713549,0.881158,0.72179
0.808575,0.713492,0.88107,0.721718
0.80809,0.713434,0.880982,0.721646
0.807605,0.713377,0.880894,0.721574
0.807121,0.713319,0.880805,0.721502
0.806636,0.713262,0.880717,0.721429
0.806152,0.713204,0.880629,0.721357
0.805669,0.713146,0.880541,0.721285
0.805185,0.713089,0.880453,0.721213
0.804702,0.713031,0.880365,0.721141
0.80422,0.712974,0.880277,0.721069
0.803737,0.712916,0.880189,0.720997
0.803255,0.712859,0.880101,0.720925
0.802773,0.712801,0.880013,0.720853
0.802291,0.712744,0.879925,0.72078
0.80181,0.712686,0.879837,0.720708
0.801329,0.712629,0.879749,0.720636
0.800848,0.712571,0.879661,0.720564
0.800368,0.712514,0.879573,0.720492
0.799888,0.712456,0.879485,0.72042
0.799408,0.712399,0.879397,0.720348
0.798928,0.712341,0.879309,0.720276
0.798848,0.712284,0.879221,0.720204
0.798768,0.712226,0.905507,0.720132
0.798289,0.712169,0.905417,0.72006
0.79781,0.712111,0.905326,0.719988
0.797331,0.712054,0.905236,0.719916
0.796853,0.711996,0.905145,0.719844
0.796375,0.711939,0.905055,0.719772
0.795897,0.711881,0.904964,0.7197
0.79542,0.711824,0.904874,0.719628
0.794943,0.711767,0.904783,0.719556
0.794466,0.711709,0.904693,0.719484
0.793989,0.711652,0.904602,0.719412
0.793513,0.711594,0.904512,0.71934
0.793037,0.711537,0.904421,0.719268
0.792561,0.711479,0.904331,0.719196
0.792085,0.711422,0.904241,0.719124
0.79161,0.711365,0.90415,0.719053
0.791135,0.711307,0.90406,0.718981
0.790661,0.71125,0.903969,0.718909
0.790186,0.711192,0.903879,0.718837
0.789712,0.711135,0.903789,0.718765
0.789238,0.711078,0.903698,0.718693
0.788765,0.71102,0.903608,0.718621
0.788292,0.710963,0.903517,0.718549
0.787819,0.710905,0.903427,0.718478
0.787346,0.710848,0.903337,0.718406
0.786874,0.710791,0.903246,0.718334
0.786402,0.710733,0.903156,0.718262
0.786323,0.710676,0.903066,0.71819
0.786244,0.710619,0.930065,0.718118
0.785773,0.710561,0.929972,0.718047
0.785301,0.710504,0.929879,0.717975
0.78483,0.710447,0.929786,0.717903
0.784359,0.710389,0.929693,0.717831
0.783889,0.710332,0.9296,0.717759
0.783418,0.710275,0.929507,0.717688
0.782948,0.710217,0.929414,0.717616
0.782479,0.71016,0.929321,0.717544
0.782009,0.710103,0.929228,0.717472
0.78154,0.710045,0.929135,0.717401
0.781071,0.709988,0.929042,0.717329
0.780602,0.709931,0.928949,0.717257
0.780134,0.709874,0.928856,0.717185
0.779666,0.709816,0.928763,0.717114
0.779198,0.709759,0.928671,0.717042
0.778731,0.709702,0.928578,0.71697
0.778264,0.709644,0.928485,0.716899
0.777797,0.709587,0.928392,0.716827
0.77733,0.70953,0.928299,0.716755
0.777252,0.709473,0.928206,0.716683
0.777175,0.709415,0.955957,0.716612
0.776708,0.709358,0.955861,0.71654
0.776242,0.709301,0.955766,0.716469
0.775777,0.709244,0.95567,0.716397
0.775311,0.709186,0.955575,0.716325
0.774846,0.709129,0.955479,0.716254
0.774381,0.709072,0.955383,0.716182
0.773917,0.709015,0.955288,0.71611
0.773452,0.708958,0.955192,0.716039
0.772988,0.7089,0.955097,0.715967
0.772525,0.708843,0.955001,0.715896
0.772061,0.708786,0.954906,0.715824
0.771598,0.708729,0.95481,0.715752
0.771135,0.708672,0.954715,0.715681
0.770672,0.708614,0.954619,0.715609
0.77021,0.708557,0.954524,0.715538
0.769748,0.7085,0.954429,0.715466
0.769286,0.708443,0.954333,0.715395
0.768824,0.708386,0.954238,0.715323
0.768363,0.708329,0.954142,0.715251
0.767902,0.708271,0.954047,0.71518
0.767442,0.708214,0.953951,0.715108
0.766981,0.708157,0.953856,0.715037
0.766521,0.7081,0.953761,0.714965
0.766061,0.708043,0.953665,0.714894
0.765601,0.707986,0.95357,0.714822
0.765142,0.707928,0.953475,0.714751
0.764683,0.707871,0.953379,0.714679
0.764224,0.707814,0.953284,0.714608
0.763766,0.707757,0.953189,0.714537
0.763308,0.7077,0.953093,0.714465
0.76285,0.707643,0.952998,0.714394
0.762392,0.707586,0.952903,0.714322
0.761935,0.707529,0.952807,0.714251
0.761477,0.707472,0.952712,0.714179
0.761021,0.707415,0.952617,0.714108
0.760564,0.707357,0.952521,0.714037
0.760108,0.7073,0.952426,0.713965
0.759652,0.707243,0.952331,0.713894
0.759196,0.707186,0.952236,0.713822
0.758741,0.707129,0.952141,0.713751
0.758285,0.707072,0.952045,0.71368
0.758209,0.707015,0.95195,0.713608
0.758134,0.706958,0.980411,0.713537
0.757679,0.706901,0.980313,0.713466
0.757224,0.706844,0.980214,0.713394
0.75677,0.706787,0.980116,0.713323
0.756316,0.70673,0.980018,0.713251
0.755862,0.706673,0.97992,0.71318
0.755409,0.706616,0.979822,0.713109
0.754955,0.706559,0.979724,0.713038
0.754503,0.706502,0.979627,0.712966
0.75405,0.706445,0.979529,0.712895
0.753597,0.706388,0.979431,0.712824
0.753145,0.706331,0.979333,0.712752
0.752694,0.706274,0.979235,0.712681
0.752242,0.706217,0.979137,0.71261
0.751791,0.70616,0.979039,0.712539
0.75134,0.706103,0.978941,0.712467
0.751264,0.706046,0.978843,0.712396
0.751189,0.705989,1,0.712325
0.750739,0.705932,0.9999,0.712254
0.750288,0.705875,0.9998,0.712182
0.749838,0.705818,0.9997,0.712111
0.749388,0.705761,0.9996,0.71204
0.748939,0.705704,0.9995,0.711969
0.748489,0.705647,0.9994,0.711898
0.74804,0.70559,0.9993,0.711826
0.747591,0.705533,0.9992,0.711755
0.747143,0.705476,0.9991,0.711684
0.746695,0.705419,0.999,0.711613
0.746247,0.705362,0.998901,0.711542
0.745799,0.705305,0.998801,0.71147
0.745352,0.705248,0.998701,0.711399
0.744904,0.705192,0.998601,0.711328
0.744458,0.705135,0.998501,0.711257
0.744011,0.705078,0.998401,0.711186
0.743565,0.705021,0.998301,0.711115
0.74349,0.704964,0.998202,0.711044
0.743416,0.704907,1,0.710973
0.74297,0.70485,0.9999,0.710902
0.742524,0.704793,0.9998,0.71083
0.742079,0.704736,0.9997,0.710759
0.741633,0.70468,0.9996,0.710688
0.741188,0.704623,0.9995,0.710617
0.740744,0.704566,0.9994,0.710546
0.740299,0.704509,0.9993,0.710475
0.739855,0.704452,0.9992,0.710404
0.739411,0.704395,0.9991,0.710333
0.738968,0.704338,0.999,0.710262
0.738524,0.704282,0.998901,0.710191
0.738081,0.704225,0.998801,0.71012
0.737638,0.704168,0.998701,0.710049
0.737196,0.704111,0.998601,0.709978
0.736754,0.704054,0.998501,0.709907
0.736312,0.703998,0.998401,0.709836
0.73587,0.703941,0.998301,0.709765
0.735796,0.703884,0.998202,0.709694
0.735723,0.703827,1,0.709623
0.735281,0.70377,0.9999,0.709552
0.73484,0.703714,0.9998,0.709481
0.734399,0.703657,0.9997,0.70941
0.733959,0.7036,0.9996,0.709339
0.733518,0.703543,0.9995,0.709268
0.733078,0.703486,0.9994,0.709197
0.732638,0.70343,0.9993,0.709126
0.732199,0.703373,0.9992,0.709055
0.73176,0.703316,0.9991,0.708985
0.731321,0.703259,0.999,0.708914
0.730882,0.703203,0.998901,0.708843
0.730443,0.703146,0.998801,0.708772
0.730005,0.703089,0.998701,0.708701
0.729567,0.703032,0.998601,0.70863
0.729129,0.702976,0.998501,0.708559
0.728692,0.702919,0.998401,0.708488
0.728255,0.702862,0.998301,0.708418
0.727818,0.702805,0.998202,0.708347
0.727381,0.702749,0.998102,0.708276
0.726945,0.702692,0.998002,0.708205
0.726509,0.702635,0.997902,0.708134
0.726073,0.702579,0.997802,0.708063
0.725637,0.702522,0.997703,0.707993
0.725202,0.702465,0.997603,0.707922
0.724767,0.702409,0.997503,0.707851
0.724332,0.702352,0.997403,0.70778
0.723897,0.702295,0.997304,0.707709
0.723463,0.702239,0.997204,0.707639
0.723029,0.702182,0.997104,0.707568
0.722595,0.702125,0.997004,0.707497
0.722162,0.702069,0.996905,0.707426
0.721729,0.702012,0.996805,0.707356
0.721296,0.701955,0.996705,0.707285
0.720863,0.701899,0.996606,0.707214
0.72043,0.701842,0.996506,0.707144
0.719998,0.701785,0.996406,0.707073
0.719566,0.701729,0.996307,0.707002
0.719134,0.701672,0.996207,0.706931
0.718703,0.701615,0.996107,0.706861
0.718272,0.701559,0.996008,0.70679
0.717841,0.701502,0.995908,0.706719
0.717769,0.701446,0.995809,0.706649
0.717697,0.701389,1,0.706578
0.717267,0.701332,0.9999,0.706507
0.716836,0.701276,0.9998,0.706437
0.716406,0.701219,0.9997,0.706366
0.715977,0.701163,0.9996,0.706295
0.715547,0.701106,0.9995,0.706225
0.715118,0.701049,0.9994,0.706154
0.714689,0.700993,0.9993,0.706084
0.71426,0.700936,0.9992,0.706013
0.713831,0.70088,0.9991,0.705942
0.713403,0.700823,0.999,0.705872
0.712975,0.700767,0.998901,0.705801
0.712547,0.70071,0.998801,0.705731
0.71212,0.700654,0.998701,0.70566
0.711693,0.700597,0.998601,0.705589
0.711266,0.70054,0.998501,0.705519
0.710839,0.700484,0.998401,0.705448
0.710412,0.700427,0.998301,0.705378
0.709986,0.700371,0.998202,0.705307
0.70956,0.700314,0.998102,0.705237
0.709135,0.700258,0.998002,0.705166
0.708709,0.700201,0.997902,0.705096
0.708284,0.700145,0.997802,0.705025
0.707859,0.700088,0.997703,0.704955
0.707434,0.700032,0.997603,0.704884
0.70701,0.699975,0.997503,0.704814
0.706586,0.699919,0.997403,0.704743
0.706162,0.699862,0.997304,0.704673
0.705738,0.699806,0.997204,0.704602
0.705315,0.699749,0.997104,0.704532
0.704892,0.699693,0.997004,0.704461
0.704469,0.699637,0.996905,0.704391
0.704046,0.69958,0.996805,0.70432
0.703624,0.699524,0.996705,0.70425
0.703202,0.699467,0.996606,0.70418
0.70278,0.699411,0.996506,0.704109
0.702358,0.699354,0.996406,0.704039
0.701937,0.699298,0.996307,0.703968
0.701516,0.699241,0.996207,0.703898
0.701095,0.699185,0.996107,0.703828
0.700674,0.699129,0.996008,0.703757
0.700254,0.699072,0.995908,0.703687
0.699834,0.699016,0.995809,0.703616
0.699414,0.698959,0.995709,0.703546
0.698994,0.698903,0.995609,0.703476
0.698575,0.698847,0.99551,0.703405
0.698156,0.69879,0.99541,0.703335
0.697737,0.698734,0.995311,0.703265
0.697318,0.698677,0.995211,0.703194
0.6969,0.698621,0.995112,0.703124
0.696482,0.698565,0.995012,0.703054
0.696412,0.698508,0.994913,0.702983
0.696342,0.698452,1,0.702913
0.695925,0.698396,0.9999,0.702843
0.695507,0.698339,0.9998,0.702773
0.69509,0.698283,0.9997,0.702702
0.694673,0.698226,0.9996,0.702632
0.694256,0.69817,0.9995,0.702562
0.693839,0.698114,0.9994,0.702492
0.693423,0.698057,0.9993,0.702421
0.693007,0.698001,0.9992,0.702351
0.692591,0.697945,0.9991,0.702281
0.692176,0.697888,0.999,0.702211
0.691761,0.697832,0.998901,0.70214
0.691346,0.697776,0.998801,0.70207
0.690931,0.69772,0.998701,0.702
0.690516,0.697663,0.998601,0.70193
0.690102,0.697607,0.998501,0.70186
0.689688,0.697551,0.998401,0.701789
0.689274,0.697494,0.998301,0.701719
0.688861,0.697438,0.998202,0.701649
0.688447,0.697382,0.998102,0.701579
0.688034,0.697325,0.998002,0.701509
0.687622,0.697269,0.997902,0.701439
0.687209,0.697213,0.997802,0.701368
0.686797,0.697157,0.997703,0.701298
0.686385,0.6971,0.997603,0.701228
0.685973,0.697044,0.997503,0.701158
0.685561,0.696988,0.997403,0.701088
0.68515,0.696932,0.997304,0.701018
0.684739,0.696875,0.997204,0.700948
0.684328,0.696819,0.997104,0.700878
0.683918,0.696763,0.997004,0.700807
0.683507,0.696707,0.996905,0.700737
0.683097,0.696651,0.996805,0.700667
0.682687,0.696594,0.996705,0.700597
0.682278,0.696538,0.996606,0.700527
0.681869,0.696482,0.996506,0.700457
0.681459,0.696426,0.996406,0.700387
0.681051,0.696369,0.996307,0.700317
0.680642,0.696313,0.996207,0.700247
0.680234,0.696257,0.996107,0.700177
0.679826,0.696201,0.996008,0.700107
0.679418,0.696145,0.995908,0.700037
0.67901,0.696089,0.995809,0.699967
0.678603,0.696032,0.995709,0.699897
0.678196,0.695976,0.995609,0.699827
0.677789,0.69592,0.99551,0.699757
0.677382,0.695864,0.99541,0.699687
0.676976,0.695808,0.995311,0.699617
0.67657,0.695752,0.995211,0.699547
0.676164,0.695695,0.995112,0.699477
0.675758,0.695639,0.995012,0.699407
0.67569,0.695583,0.994913,0.699337
0.675623,0.695527,1,0.699267
0.675217,0.695471,0.9999,0.699197
0.674812,0.695415,0.9998,0.699127
0.674408,0.695359,0.9997,0.699058
0.674003,0.695303,0.9996,0.698988
0.673599,0.695246,0.9995,0.698918
0.673194,0.69519,0.9994,0.698848
0.672791,0.695134,0.9993,0.698778
0.672387,0.695078,0.9992,0.698708
0.671983,0.695022,0.9991,0.698638
0.67158,0.694966,0.999,0.698568
0.671177,0.69491,0.998901,0.698498
0.670775,0.694854,0.998801,0.698429
0.670372,0.694798,0.998701,0.698359
0.66997,0.694742,0.998601,0.698289
0.669568,0.694686,0.998501,0.698219
0.669166,0.69463,0.998401,0.698149
0.668765,0.694574,0.998301,0.69808
0.668364,0.694517,0.998202,0.69801
0.667963,0.694461,0.998102,0.69794
0.667562,0.694405,0.998002,0.69787
0.667162,0.694349,0.997902,0.6978
0.666761,0.694293,0.997802,0.697731
0.666361,0.694237,0.997703,0.697661
0.665961,0.694181,0.997603,0.697591
0.665562,0.694125,0.997503,0.697521
0.665163,0.694069,0.997403,0.697451
0.664764,0.694013,0.997304,0.697382
0.664365,0.693957,0.997204,0.697312
0.663966,0.693901,0.997104,0.697242
0.663568,0.693845,0.997004,0.697173
0.66317,0.693789,0.996905,0.697103
0.662772,0.693733,0.996805,0.697033
0.662706,0.693677,0.996705,0.696963
0.662639,0.693621,1,0.696894
0.662242,0.693565,0.9999,0.696824
0.661844,0.693509,0.9998,0.696754
0.661447,0.693453,0.9997,0.696685
0.66105,0.693397,0.9996,0.696615
0.660654,0.693341,0.9995,0.696545
0.660258,0.693286,0.9994,0.696476
0.659861,0.69323,0.9993,0.696406
0.659466,0.693174,0.9992,0.696336
0.65907,0.693118,0.9991,0.696267
0.658674,0.693062,0.999,0.696197
0.658279,0.693006,0.998901,0.696128
0.657884,0.69295,0.998801,0.696058
0.65749,0.692894,0.998701,0.695988
0.657095,0.692838,0.998601,0.695919
0.656701,0.692782,0.998501,0.695849
0.656307,0.692726,0.998401,0.69578
0.655913,0.69267,0.998301,0.69571
0.65552,0.692614,0.998202,0.69564
0.655126,0.692559,0.998102,0.695571
0.654733,0.692503,0.998002,0.695501
0.654341,0.692447,0.997902,0.695432
0.654275,0.692391,0.997802,0.695362
0.65421,0.692335,1,0.695293
0.653817,0.692279,0.9999,0.695223
0.653425,0.692223,0.9998,0.695154
0.653033,0.692167,0.9997,0.695084
0.652641,0.692112,0.9996,0.695015
0.65225,0.692056,0.9995,0.694945
0.651858,0.692,0.9994,0.694876
0.651467,0.691944,0.9993,0.694806
0.651076,0.691888,0.9992,0.694737
0.650686,0.691832,0.9991,0.694667
0.650295,0.691777,0.999,0.694598
0.649905,0.691721,0.998901,0.694528
0.649515,0.691665,0.998801,0.694459
0.64945,0.691609,0.998701,0.694389
0.649385,0.691553,1,0.69432
0.648996,0.691498,0.9999,0.69425
0.648606,0.691442,0.9998,0.694181
0.648217,0.691386,0.9997,0.694112
0.647828,0.69133,0.9996,0.694042
0.64744,0.691274,0.9995,0.693973
0.647051,0.691219,0.9994,0.693903
0.646663,0.691163,0.9993,0.693834
0.646275,0.691107,0.9992,0.693765
0.645887,0.691051,0.9991,0.693695
0.6455,0.690995,0.999,0.693626
0.645113,0.69094,0.998901,0.693556
0.644726,0.690884,0.998801,0.693487
0.644339,0.690828,0.998701,0.693418
0.643952,0.690772,0.998601,0.693348
0.643566,0.690717,0.998501,0.693279
0.64318,0.690661,0.998401,0.69321
0.642794,0.690605,0.998301,0.69314
0.642408,0.690549,0.998202,0.693071
0.642344,0.690494,0.998102,0.693002
0.64228,0.690438,1,0.692933
0.641895,0.690382,0.9999,0.692863
0.641509,0.690327,0.9998,0.692794
0.641125,0.690271,0.9997,0.692725
0.64074,0.690215,0.9996,0.692655
0.640355,0.69016,0.9995,0.692586
0.639971,0.690104,0.9994,0.692517
0.639587,0.690048,0.9993,0.692448
0.639204,0.689992,0.9992,0.692378
0.63882,0.689937,0.9991,0.692309
0.638437,0.689881,0.999,0.69224
0.638054,0.689825,0.998901,0.692171
0.637671,0.68977,0.998801,0.692101
0.637288,0.689714,0.998701,0.692032
0.636906,0.689658,0.998601,0.691963
0.636524,0.689603,0.998501,0.691894
0.636142,0.689547,0.998401,0.691825
0.63576,0.689491,0.998301,0.691755
0.635379,0.689436,0.998202,0.691686
0.634998,0.68938,0.998102,0.691617
0.634617,0.689325,0.998002,0.691548
0.634236,0.689269,0.997902,0.691479
0.633856,0.689213,0.997802,0.69141
0.633475,0.689158,0.997703,0.691341
0.633095,0.689102,0.997603,0.691271
0.632715,0.689047,0.997503,0.691202
0.632336,0.688991,0.997403,0.691133
0.631957,0.688935,0.997304,0.691064
0.631577,0.68888,0.997204,0.690995
0.631198,0.688824,0.997104,0.690926
0.63082,0.688769,0.997004,0.690857
0.630441,0.688713,0.996905,0.690788
0.630063,0.688657,0.996805,0.690719
0.629685,0.688602,0.996705,0.69065
0.629307,0.688546,0.996606,0.69058
0.62893,0.688491,0.996506,0.690511
0.628552,0.688435,0.996406,0.690442
0.628175,0.68838,0.996307,0.690373
0.627798,0.688324,0.996207,0.690304
0.627736,0.688268,0.996107,0.690235
0.627673,0.688213,1,0.690166
0.627296,0.688157,0.9999,0.690097
0.62692,0.688102,0.9998,0.690028
0.626544,0.688046,0.9997,0.689959
0.626168,0.687991,0.9996,0.68989
0.625792,0.687935,0.9995,0.689821
0.625417,0.68788,0.9994,0.689752
0.625042,0.687824,0.9993,0.689683
0.624667,0.687769,0.9992,0.689614
0.624292,0.687713,0.9991,0.689545
0.623917,0.687658,0.999,0.689476
0.623543,0.687602,0.998901,0.689407
0.623169,0.687547,0.998801,0.689338
0.622795,0.687491,0.998701,0.68927
0.622421,0.687436,0.998601,0.689201
0.622048,0.68738,0.998501,0.689132
0.621675,0.687325,0.998401,0.689063
0.621302,0.687269,0.998301,0.688994
0.620929,0.687214,0.998202,0.688925
0.620557,0.687159,0.998102,0.688856
0.620184,0.687103,0.998002,0.688787
0.619812,0.687048,0.997902,0.688718
0.61944,0.686992,0.997802,0.688649
0.619069,0.686937,0.997703,0.688581
0.618697,0.686881,0.997603,0.688512
0.618326,0.686826,0.997503,0.688443
0.617955,0.68677,0.997403,0.688374
0.617584,0.686715,0.997304,0.688305
0.617214,0.68666,0.997204,0.688236
0.616844,0.686604,0.997104,0.688168
0.616473,0.686549,0.997004,0.688099
0.616104,0.686493,0.996905,0.68803
0.615734,0.686438,0.996805,0.687961
0.615365,0.686383,0.996705,0.687892
0.614995,0.686327,0.996606,0.687823
0.614626,0.686272,0.996506,0.687755
0.614258,0.686216,0.996406,0.687686
0.613889,0.686161,0.996307,0.687617
0.613521,0.686106,0.996207,0.687548
0.613153,0.68605,0.996107,0.68748
0.612785,0.685995,0.996008,0.687411
0.612417,0.68594,0.995908,0.687342
0.61205,0.685884,0.995809,0.687273
0.611683,0.685829,0.995709,0.687205
0.611316,0.685774,0.995609,0.687136
0.610949,0.685718,0.99551,0.687067
0.610582,0.685663,0.99541,0.686999
0.610216,0.685608,0.995311,0.68693
0.60985,0.685552,0.995211,0.686861
0.609484,0.685497,0.995112,0.686792
0.609118,0.685442,0.995012,0.686724
0.608753,0.685386,0.994913,0.686655
0.608388,0.685331,0.994813,0.686586
0.608023,0.685276,0.994714,0.686518
0.607658,0.68522,0.994614,0.686449
0.607293,0.685165,0.994515,0.686381
0.606929,0.68511,0.994415,0.686312
0.606565,0.685055,0.994316,0.686243
0.606201,0.684999,0.994216,0.686175
