energy,productivity,fun,hunger
0.949321,0.637724,0.769068,0.833378
0.949226,0.637689,0.768991,0.833295
0.948657,0.637654,0.768914,0.833212
0.948088,0.637618,0.768837,0.833128
0.947519,0.637583,0.76876,0.833045
0.94695,0.637547,0.768683,0.832962
0.946382,0.637512,0.768607,0.832879
0.945814,0.637477,0.76853,0.832795
0.945247,0.637441,0.768453,0.832712
0.94468,0.637406,0.768376,0.832629
0.944113,0.63737,0.768299,0.832545
0.943547,0.637335,0.768222,0.832462
0.942981,0.637299,0.768146,0.832379
0.942415,0.637264,0.768069,0.832296
0.941849,0.637229,0.767992,0.832212
0.941284,0.637193,0.767915,0.832129
0.94072,0.637158,0.767838,0.832046
0.940155,0.637122,0.767762,0.831963
0.939591,0.637087,0.767685,0.83188
0.939027,0.637052,0.767608,0.831796
0.938464,0.637016,0.767531,0.831713
0.937901,0.636981,0.767454,0.83163
0.937338,0.636946,0.767378,0.831547
0.936776,0.63691,0.767301,0.831464
0.936214,0.636875,0.767224,0.831381
0.935652,0.636839,0.767148,0.831297
0.935091,0.636804,0.767071,0.831214
0.93453,0.636769,0.766994,0.831131
0.933969,0.636733,0.766917,0.831048
0.933409,0.636698,0.766841,0.830965
0.932849,0.636662,0.766764,0.830882
0.932289,0.636627,0.766687,0.830799
0.93173,0.636592,0.766611,0.830716
0.931171,0.636556,0.766534,0.830633
0.930612,0.636521,0.766457,0.83055
0.930054,0.636486,0.766381,0.830467
0.929496,0.63645,0.766304,0.830384
0.928938,0.636415,0.766227,0.8303
0.928381,0.63638,0.766151,0.830217
0.927824,0.636344,0.766074,0.830134
0.927267,0.636309,0.765998,0.830051
0.926711,0.636274,0.765921,0.829968
0.926155,0.636238,0.765844,0.829885
0.925599,0.636203,0.765768,0.829802
0.925044,0.636168,0.765691,0.829719
0.924489,0.636132,0.765615,0.829636
0.923935,0.636097,0.765538,0.829554
0.92338,0.636061,0.765462,0.829471
0.922826,0.636026,0.765385,0.829388
0.922273,0.635991,0.765309,0.829305
0.921719,0.635955,0.765232,0.829222
0.921166,0.63592,0.765155,0.829139
0.920614,0.635885,0.765079,0.829056
0.920061,0.63585,0.765002,0.828973
0.919509,0.635814,0.764926,0.82889
0.918958,0.635779,0.764849,0.828807
0.918406,0.635744,0.764773,0.828724
0.917855,0.635708,0.764696,0.828641
0.917305,0.635673,0.76462,0.828559
0.916754,0.635638,0.764544,0.828476
0.916204,0.635602,0.764467,0.828393
0.915655,0.635567,0.764391,0.82831
0.915105,0.635532,0.764314,0.828227
0.914556,0.635496,0.764238,0.828144
0.914008,0.635461,0.764161,0.828062
0.913459,0.635426,0.764085,0.827979
0.912455,0.636026,0.762481,0.827896
0.911451,0.636626,0.760879,0.827813
0.910448,0.637228,0.759282,0.82773
0.909447,0.63783,0.757687,0.827648
0.908447,0.638432,0.756096,0.827565
0.907448,0.639035,0.754509,0.827482
0.906449,0.639638,0.752924,0.827399
0.905452,0.640242,0.751343,0.827317
0.904456,0.640847,0.749766,0.827234
0.903462,0.641452,0.748191,0.827151
0.902468,0.642058,0.74662,0.827068
0.901475,0.642664,0.745053,0.826986
0.900484,0.643271,0.743488,0.826903
0.899493,0.643879,0.741927,0.82682
0.898504,0.644487,0.740369,0.826738
0.897516,0.645095,0.738814,0.826655
0.896529,0.645705,0.737263,0.826572
0.895542,0.646315,0.735715,0.82649
0.894557,0.646925,0.73417,0.826407
0.893574,0.647536,0.732629,0.826324
0.892591,0.648147,0.73109,0.826242
0.891609,0.648759,0.729555,0.826159
0.890628,0.649372,0.728023,0.826077
0.889649,0.649985,0.726494,0.825994
0.88867,0.650599,0.724969,0.825911
0.887693,0.651214,0.723447,0.825829
0.886716,0.651829,0.721928,0.825746
0.885741,0.652444,0.720412,0.825664
0.884767,0.65306,0.718899,0.825581
0.883794,0.653677,0.717389,0.825498
0.882822,0.654294,0.715883,0.825416
0.881851,0.654912,0.71438,0.825333
0.880881,0.655531,0.71288,0.825251
0.879912,0.65615,0.711383,0.825168
0.878944,0.65677,0.709889,0.825086
0.877977,0.65739,0.708398,0.825003
0.877011,0.658011,0.706911,0.824921
0.876047,0.658632,0.705427,0.824838
0.875083,0.659254,0.703945,0.824756
0.874121,0.659877,0.702467,0.824673
0.873159,0.6605,0.700992,0.824591
0.872199,0.661124,0.69952,0.824508
0.87124,0.661748,0.698051,0.824426
0.870281,0.662373,0.696586,0.824344
0.869324,0.662999,0.695123,0.824261
0.868368,0.663625,0.693663,0.824179
0.867413,0.664251,0.692207,0.824096
0.866459,0.664879,0.690753,0.824014
0.865506,0.665507,0.689303,0.823931
0.864554,0.666135,0.687855,0.823849
0.863603,0.666764,0.686411,0.823767
0.862653,0.667394,0.68497,0.823684
0.861704,0.668024,0.683531,0.823602
0.860756,0.668655,0.682096,0.82352
0.85981,0.669287,0.680664,0.823437
0.858864,0.669919,0.679235,0.823355
0.857919,0.670551,0.677808,0.823272
0.856976,0.671184,0.676385,0.82319
0.856033,0.671818,0.674965,0.823108
0.855091,0.672453,0.673547,0.823026
0.854151,0.673088,0.672133,0.822943
0.853211,0.673724,0.670722,0.822861
0.852273,0.67436,0.669313,0.822779
0.851336,0.674997,0.667908,0.822696
0.850399,0.675634,0.666506,0.822614
0.849464,0.676272,0.665106,0.822532
0.84853,0.676911,0.663709,0.82245
0.847596,0.67755,0.662316,0.822367
0.846664,0.67819,0.660925,0.822285
0.845733,0.67883,0.659537,0.822203
0.844803,0.679472,0.658152,0.822121
0.843873,0.680113,0.65677,0.822038
0.842945,0.680756,0.655391,0.821956
0.842018,0.681398,0.654015,0.821874
0.841092,0.682042,0.652642,0.821792
0.840167,0.682686,0.651271,0.82171
0.839243,0.683331,0.649904,0.821628
0.83832,0.683976,0.648539,0.821545
0.837397,0.684622,0.647177,0.821463
0.836476,0.685269,0.645818,0.821381
0.835556,0.685916,0.644462,0.821299
0.834637,0.686564,0.643109,0.821217
0.833719,0.687212,0.641759,0.821135
0.832802,0.687861,0.640411,0.821053
0.831886,0.688511,0.639066,0.82097
0.830971,0.689161,0.637724,0.820888
0.830057,0.689812,0.636385,0.820806
0.829144,0.690463,0.635049,0.820724
0.828232,0.691115,0.633716,0.820642
0.827321,0.691768,0.632385,0.82056
0.826411,0.692421,0.631057,0.820478
0.825502,0.693075,0.629732,0.820396
0.824595,0.69373,0.62841,0.820314
0.823688,0.694385,0.62709,0.820232
0.822782,0.69504,0.625773,0.82015
0.821877,0.695697,0.624459,0.820068
0.820973,0.696354,0.623148,0.819986
0.82007,0.697011,0.62184,0.819904
0.819168,0.69767,0.620534,0.819822
0.818267,0.698329,0.619231,0.81974
0.817367,0.698988,0.617931,0.819658
0.816468,0.699648,0.616633,0.819576
0.81557,0.700309,0.615338,0.819494
0.814673,0.70097,0.614046,0.819412
0.813776,0.701632,0.612757,0.81933
0.812881,0.702295,0.61147,0.819248
0.811987,0.702958,0.610186,0.819166
0.811094,0.703622,0.608905,0.819084
0.810202,0.704287,0.607626,0.819002
0.809311,0.704952,0.60635,0.81892
0.808421,0.705617,0.605077,0.818839
0.807532,0.706284,0.603807,0.818757
0.806643,0.706951,0.602539,0.818675
0.805756,0.707618,0.601274,0.818593
0.80487,0.708287,0.600011,0.818511
0.803985,0.708956,0.598751,0.818429
0.8031,0.709625,0.597494,0.818347
0.802217,0.710295,0.596239,0.818266
0.801335,0.710966,0.594987,0.818184
0.800453,0.711638,0.593738,0.818102
0.799573,0.71231,0.592491,0.81802
0.798693,0.712982,0.591247,0.817938
0.797815,0.713656,0.590006,0.817857
0.796937,0.71433,0.588767,0.817775
0.796061,0.715004,0.58753,0.817693
0.795185,0.715679,0.586297,0.817611
0.794311,0.716355,0.585066,0.817529
0.793437,0.717032,0.583837,0.817448
0.792564,0.717709,0.582611,0.817366
0.791693,0.718387,0.581388,0.817284
0.790822,0.719065,0.580167,0.817202
0.789952,0.719744,0.578949,0.817121
0.789083,0.720424,0.577733,0.817039
0.788215,0.721104,0.57652,0.816957
0.787348,0.721785,0.575309,0.816876
0.786482,0.722467,0.574101,0.816794
0.785617,0.723149,0.572896,0.816712
0.784753,0.723832,0.571693,0.816631
0.78389,0.724516,0.570492,0.816549
0.783028,0.7252,0.569295,0.816467
0.782166,0.725885,0.568099,0.816386
0.781306,0.72657,0.566906,0.816304
0.780447,0.727257,0.565716,0.816222
0.779588,0.727943,0.564528,0.816141
0.778731,0.728631,0.563343,0.816059
0.777874,0.729319,0.56216,0.815978
0.777019,0.730008,0.560979,0.815896
0.776164,0.730697,0.559801,0.815814
0.77531,0.731387,0.558626,0.815733
0.774458,0.732078,0.557453,0.815651
0.773606,0.732769,0.556282,0.81557
0.772755,0.733461,0.555114,0.815488
0.771905,0.734154,0.553949,0.815407
0.771056,0.734847,0.552785,0.815325
0.770208,0.735541,0.551625,0.815243
0.769361,0.736236,0.550466,0.815162
0.768514,0.736931,0.54931,0.81508
0.767669,0.737627,0.548157,0.814999
0.766825,0.738324,0.547006,0.814917
0.765981,0.739021,0.545857,0.814836
0.765139,0.739719,0.544711,0.814754
0.764297,0.740418,0.543567,0.814673
0.763457,0.741117,0.542426,0.814591
0.762617,0.741817,0.541287,0.81451
0.761778,0.742517,0.54015,0.814429
0.76094,0.743219,0.539016,0.814347
0.760103,0.74392,0.537884,0.814266
0.759267,0.744623,0.536755,0.814184
0.758432,0.745326,0.535628,0.814103
0.757598,0.74603,0.534503,0.814021
0.756765,0.746735,0.533381,0.81394
0.755932,0.74744,0.532261,0.813859
0.755101,0.748146,0.531143,0.813777
0.755025,0.748104,0.53109,0.813696
0.75495,0.748063,0.531037,0.813614
0.754874,0.748021,0.530984,0.813533
0.754799,0.747979,0.530931,0.813452
0.754723,0.747938,0.530878,0.81337
0.754648,0.747896,0.530825,0.813289
0.754572,0.747855,0.530771,0.813208
0.754497,0.747813,0.530718,0.813126
0.754422,0.747772,0.530665,0.813045
0.754346,0.74773,0.530612,0.812964
0.754271,0.747689,0.530559,0.812883
0.754195,0.747647,0.530506,0.812801
0.75412,0.747606,0.530453,0.81272
0.754044,0.747564,0.5304,0.812639
0.753969,0.747523,0.530347,0.812557
0.753894,0.747481,0.530294,0.812476
0.753818,0.747439,0.530241,0.812395
0.753743,0.747398,0.530188,0.812314
0.753667,0.747356,0.530135,0.812232
0.753592,0.747315,0.530082,0.812151
0.753517,0.747273,0.530029,0.81207
0.753441,0.747232,0.529976,0.811989
0.753366,0.74719,0.529923,0.811908
0.753291,0.747149,0.52987,0.811826
0.753215,0.747107,0.529817,0.811745
0.75314,0.747066,0.529764,0.811664
0.753065,0.747024,0.529711,0.811583
0.752989,0.746983,0.529658,0.811502
0.752914,0.746941,0.529605,0.811421
0.752839,0.7469,0.529552,0.811339
0.752764,0.746858,0.529499,0.811258
0.752688,0.746817,0.529446,0.811177
0.752613,0.746775,0.529393,0.811096
0.752538,0.746734,0.52934,0.811015
0.752462,0.746692,0.529287,0.810934
0.752387,0.746651,0.529234,0.810853
0.752312,0.746609,0.529181,0.810772
0.752237,0.746568,0.529129,0.810691
0.752162,0.746526,0.529076,0.81061
0.752086,0.746485,0.529023,0.810528
0.752011,0.746444,0.52897,0.810447
0.751936,0.746402,0.528917,0.810366
0.751861,0.746361,0.528864,0.810285
0.751786,0.746319,0.528811,0.810204
0.75171,0.746278,0.528758,0.810123
0.751635,0.746236,0.528705,0.810042
0.75156,0.746195,0.528653,0.809961
0.751485,0.746153,0.5286,0.80988
0.75141,0.746112,0.528547,0.809799
0.751335,0.74607,0.528494,0.809718
0.751259,0.746029,0.528441,0.809637
0.751184,0.745988,0.528388,0.809556
0.751109,0.745946,0.528335,0.809475
0.751034,0.745905,0.528283,0.809394
0.750959,0.745863,0.52823,0.809314
0.750884,0.745822,0.528177,0.809233
0.750809,0.74578,0.528124,0.809152
0.750734,0.745739,0.528071,0.809071
0.750659,0.745697,0.528019,0.80899
0.750584,0.745656,0.527966,0.808909
0.750509,0.745615,0.527913,0.808828
0.750433,0.745573,0.52786,0.808747
0.750358,0.745532,0.527807,0.808666
0.750283,0.74549,0.527755,0.808585
0.750208,0.745449,0.527702,0.808505
0.750133,0.745408,0.527649,0.808424
0.750058,0.745366,0.527596,0.808343
0.749983,0.745325,0.527543,0.808262
0.749908,0.745283,0.527491,0.808181
0.749833,0.745242,0.527438,0.8081
0.749758,0.745201,0.527385,0.80802
0.749683,0.745159,0.527332,0.807939
0.749608,0.745118,0.52728,0.807858
0.749533,0.745076,0.527227,0.807777
0.749459,0.745035,0.527174,0.807696
0.749384,0.744994,0.527122,0.807616
0.749309,0.744952,0.527069,0.807535
0.749234,0.744911,0.527016,0.807454
0.749159,0.744869,0.526963,0.807373
0.749084,0.744828,0.526911,0.807293
0.749009,0.744787,0.526858,0.807212
0.748934,0.744745,0.526805,0.807131
0.748859,0.744704,0.526753,0.807051
0.748784,0.744663,0.5267,0.80697
0.748709,0.744621,0.526647,0.806889
0.748635,0.74458,0.526595,0.806808
0.74856,0.744538,0.526542,0.806728
0.748485,0.744497,0.526489,0.806647
0.74841,0.744456,0.526437,0.806566
0.748335,0.744414,0.526384,0.806486
0.74826,0.744373,0.526331,0.806405
0.748185,0.744332,0.526279,0.806324
0.748111,0.74429,0.526226,0.806244
0.748036,0.744249,0.526174,0.806163
0.747961,0.744208,0.526121,0.806083
0.747886,0.744166,0.526068,0.806002
0.747811,0.744125,0.526016,0.805921
0.747737,0.744084,0.525963,0.805841
0.747662,0.744042,0.525911,0.80576
0.747587,0.744001,0.525858,0.80568
0.747512,0.74396,0.525805,0.805599
0.747438,0.743918,0.525753,0.805518
0.747363,0.743877,0.5257,0.805438
0.747288,0.743836,0.525648,0.805357
0.747213,0.743794,0.525595,0.805277
0.747139,0.743753,0.525543,0.805196
0.747064,0.743712,0.52549,0.805116
0.746989,0.74367,0.525437,0.805035
0.746915,0.743629,0.525385,0.804955
0.74684,0.743588,0.525332,0.804874
0.746765,0.743546,0.52528,0.804794
0.74669,0.743505,0.525227,0.804713
0.746616,0.743464,0.525175,0.804633
0.746541,0.743422,0.525122,0.804552
0.746467,0.743381,0.52507,0.804472
0.746392,0.74334,0.525017,0.804391
0.746317,0.743299,0.524965,0.804311
0.746243,0.743257,0.524912,0.804231
0.746168,0.743216,0.52486,0.80415
0.746093,0.743175,0.524807,0.80407
0.746019,0.743133,0.524755,0.803989
0.745944,0.743092,0.524702,0.803909
0.74587,0.743051,0.52465,0.803829
0.745795,0.74301,0.524597,0.803748
0.74572,0.742968,0.524545,0.803668
0.745646,0.742927,0.524492,0.803587
0.745571,0.742886,0.52444,0.803507
0.745497,0.742844,0.524388,0.803427
0.745422,0.742803,0.524335,0.803346
0.745348,0.742762,0.524283,0.803266
0.745273,0.742721,0.52423,0.803186
0.745199,0.742679,0.524178,0.803105
0.745124,0.742638,0.524125,0.803025
0.74505,0.742597,0.524073,0.802945
0.744975,0.742556,0.524021,0.802865
0.744901,0.742514,0.523968,0.802784
0.744826,0.742473,0.523916,0.802704
0.744752,0.742432,0.523863,0.802624
0.744677,0.742391,0.523811,0.802543
0.744603,0.742349,0.523759,0.802463
0.744528,0.742308,0.523706,0.802383
0.744454,0.742267,0.523654,0.802303
0.744379,0.742226,0.523602,0.802222
0.744305,0.742184,0.523549,0.802142
0.74423,0.742143,0.523497,0.802062
0.744156,0.742102,0.523444,0.801982
0.744082,0.742061,0.523392,0.801902
0.744007,0.74202,0.52334,0.801821
0.743933,0.741978,0.523287,0.801741
0.743858,0.741937,0.523235,0.801661
0.743784,0.741896,0.523183,0.801581
0.74371,0.741855,0.52313,0.801501
0.743635,0.741813,0.523078,0.801421
0.743561,0.741772,0.523026,0.80134
0.743486,0.741731,0.522974,0.80126
0.743412,0.74169,0.522921,0.80118
0.743338,0.741649,0.522869,0.8011
0.743263,0.741607,0.522817,0.80102
0.743189,0.741566,0.522764,0.80094
0.743115,0.741525,0.522712,0.80086
0.74304,0.741484,0.52266,0.80078
0.742966,0.741443,0.522608,0.8007
0.742892,0.741401,0.522555,0.80062
0.742818,0.74136,0.522503,0.800539
0.742743,0.741319,0.522451,0.800459
0.742669,0.741278,0.522399,0.800379
0.742595,0.741237,0.522346,0.800299
0.742521,0.741196,0.522294,0.800219
0.742446,0.741154,0.522242,0.800139
0.742372,0.741113,0.52219,0.800059
0.742298,0.741072,0.522137,0.799979
0.742224,0.741031,0.522085,0.799899
0.742149,0.74099,0.522033,0.799819
0.742075,0.740949,0.521981,0.799739
0.742001,0.740907,0.521929,0.799659
0.741927,0.740866,0.521876,0.799579
0.741853,0.740825,0.521824,0.799499
0.741778,0.740784,0.521772,0.799419
0.741704,0.740743,0.52172,0.79934
0.74163,0.740702,0.521668,0.79926
0.741556,0.74066,0.521615,0.79918
0.741482,0.740619,0.521563,0.7991
0.741408,0.740578,0.521511,0.79902
0.741333,0.740537,0.521459,0.79894
0.741259,0.740496,0.521407,0.79886
0.741185,0.740455,0.521355,0.79878
0.741111,0.740414,0.521303,0.7987
0.741037,0.740372,0.52125,0.79862
0.740963,0.740331,0.521198,0.798541
0.740889,0.74029,0.521146,0.798461
0.740815,0.740249,0.521094,0.798381
0.740741,0.740208,0.521042,0.798301
0.740666,0.740167,0.52099,0.798221
0.740592,0.740126,0.520938,0.798141
0.740518,0.740085,0.520886,0.798062
0.740444,0.740043,0.520834,0.797982
0.74037,0.740002,0.520782,0.797902
0.740296,0.739961,0.520729,0.797822
0.740222,0.73992,0.520677,0.797742
0.740148,0.739879,0.520625,0.797663
0.740074,0.739838,0.520573,0.797583
0.74,0.739797,0.520521,0.797503
0.739926,0.739756,0.520469,0.797423
0.739852,0.739715,0.520417,0.797344
0.739778,0.739674,0.520365,0.797264
0.739704,0.739632,0.520313,0.797184
0.73963,0.739591,0.520261,0.797104
0.739556,0.73955,0.520209,0.797025
0.739482,0.739509,0.520157,0.796945
0.739408,0.739468,0.520105,0.796865
0.739334,0.739427,0.520053,0.796786
0.73926,0.739386,0.520001,0.796706
0.739187,0.739345,0.519949,0.796626
0.739113,0.739304,0.519897,0.796547
0.739039,0.739263,0.519845,0.796467
0.738965,0.739222,0.519793,0.796387
0.738891,0.739181,0.519741,0.796308
0.738817,0.73914,0.519689,0.796228
0.738743,0.739098,0.519637,0.796148
0.738669,0.739057,0.519585,0.796069
0.738595,0.739016,0.519533,0.795989
0.738522,0.738975,0.519481,0.79591
0.738448,0.738934,0.519429,0.79583
0.738374,0.738893,0.519377,0.79575
0.7383,0.738852,0.519325,0.795671
0.738226,0.738811,0.519273,0.795591
0.738152,0.73877,0.519221,0.795512
0.738079,0.738729,0.51917,0.795432
0.738005,0.738688,0.519118,0.795353
0.737931,0.738647,0.519066,0.795273
0.737857,0.738606,0.519014,0.795194
0.737783,0.738565,0.518962,0.795114
0.73771,0.738524,0.51891,0.795034
0.737636,0.738483,0.518858,0.794955
0.737562,0.738442,0.518806,0.794875
0.737488,0.738401,0.518754,0.794796
0.737414,0.73836,0.518702,0.794717
0.737341,0.738319,0.518651,0.794637
0.737267,0.738278,0.518599,0.794558
0.737193,0.738237,0.518547,0.794478
0.73712,0.738196,0.518495,0.794399
0.737046,0.738155,0.518443,0.794319
0.736972,0.738114,0.518391,0.79424
0.736898,0.738073,0.518339,0.79416
0.736825,0.738032,0.518288,0.794081
0.736751,0.737991,0.518236,0.794002
0.736677,0.73795,0.518184,0.793922
0.736604,0.737909,0.518132,0.793843
0.73653,0.737868,0.51808,0.793763
0.736456,0.737827,0.518029,0.793684
0.736383,0.737786,0.517977,0.793605
0.736309,0.737745,0.517925,0.793525
0.736236,0.737704,0.517873,0.793446
0.736162,0.737663,0.517821,0.793367
0.736088,0.737622,0.51777,0.793287
0.736015,0.737581,0.517718,0.793208
0.735941,0.73754,0.517666,0.793129
0.735867,0.737499,0.517614,0.793049
0.735794,0.737458,0.517563,0.79297
0.73572,0.737417,0.517511,0.792891
0.735647,0.737376,0.517459,0.792811
0.735573,0.737335,0.517407,0.792732
0.7355,0.737294,0.517356,0.792653
0.735426,0.737253,0.517304,0.792574
0.735353,0.737212,0.517252,0.792494
0.735279,0.737171,0.5172,0.792415
0.735205,0.73713,0.517149,0.792336
0.735132,0.737089,0.517097,0.792257
0.735058,0.737048,0.517045,0.792177
0.734985,0.737007,0.516993,0.792098
0.734911,0.736966,0.516942,0.792019
0.734838,0.736925,0.51689,0.79194
0.734764,0.736884,0.516838,0.791861
0.734691,0.736844,0.516787,0.791781
0.734618,0.736803,0.516735,0.791702
0.734544,0.736762,0.516683,0.791623
0.734471,0.736721,0.516632,0.791544
0.734397,0.73668,0.51658,0.791465
0.734324,0.736639,0.516528,0.791386
0.73425,0.736598,0.516477,0.791306
0.734177,0.736557,0.516425,0.791227
0.734103,0.736516,0.516373,0.791148
0.73403,0.736475,0.516322,0.791069
0.733957,0.736434,0.51627,0.79099
0.733883,0.736393,0.516219,0.790911
0.73381,0.736352,0.516167,0.790832
0.733736,0.736312,0.516115,0.790753
0.733663,0.736271,0.516064,0.790674
0.73359,0.73623,0.516012,0.790595
0.733516,0.736189,0.51596,0.790515
0.733443,0.736148,0.515909,0.790436
0.73337,0.736107,0.515857,0.790357
0.733296,0.736066,0.515806,0.790278
0.733223,0.736025,0.515754,0.790199
0.73315,0.735984,0.515703,0.79012
0.733076,0.735944,0.515651,0.790041
0.733003,0.735903,0.515599,0.789962
0.73293,0.735862,0.515548,0.789883
0.732856,0.735821,0.515496,0.789804
0.732783,0.73578,0.515445,0.789725
0.73271,0.735739,0.515393,0.789646
0.732637,0.735698,0.515342,0.789567
0.732563,0.735657,0.51529,0.789488
0.73249,0.735617,0.515239,0.789409
0.732417,0.735576,0.515187,0.789331
0.732344,0.735535,0.515136,0.789252
0.73227,0.735494,0.515084,0.789173
0.732197,0.735453,0.515033,0.789094
0.732124,0.735412,0.514981,0.789015
0.732051,0.735371,0.51493,0.788936
0.731978,0.73533,0.514878,0.788857
0.731904,0.73529,0.514827,0.788778
0.731831,0.735249,0.514775,0.788699
0.731758,0.735208,0.514724,0.78862
0.731685,0.735167,0.514672,0.788542
0.731612,0.735126,0.514621,0.788463
0.731538,0.735085,0.514569,0.788384
0.731465,0.735045,0.514518,0.788305
0.731392,0.735004,0.514466,0.788226
0.731319,0.734963,0.514415,0.788147
0.731246,0.734922,0.514363,0.788069
0.731173,0.734881,0.514312,0.78799
