energy,productivity,fun,hunger
0.674903,0.737071,0.741769,0.573766
0.674836,0.737,0.763946,0.573709
0.674431,0.736929,0.76387,0.573652
0.674026,0.736858,0.763793,0.573594
0.673622,0.736787,0.763717,0.573537
0.673218,0.736716,0.76364,0.57348
0.672814,0.736646,0.763564,0.573422
0.67241,0.736575,0.763488,0.573365
0.672007,0.736504,0.763411,0.573308
0.671604,0.736433,0.763335,0.57325
0.671201,0.736362,0.763259,0.573193
0.670798,0.736292,0.763182,0.573136
0.670396,0.736221,0.763106,0.573078
0.669993,0.73615,0.76303,0.573021
0.669591,0.736079,0.762953,0.572964
0.66919,0.736008,0.762877,0.572906
0.668788,0.735938,0.762801,0.572849
0.668387,0.735867,0.762725,0.572792
0.667986,0.735796,0.762648,0.572735
0.667585,0.735725,0.762572,0.572677
0.667185,0.735655,0.762496,0.57262
0.666784,0.735584,0.76242,0.572563
0.666384,0.735513,0.762343,0.572505
0.665985,0.735443,0.762267,0.572448
0.665585,0.735372,0.762191,0.572391
0.665186,0.735301,0.762115,0.572334
0.664787,0.73523,0.762038,0.572277
0.664388,0.73516,0.761962,0.572219
0.663989,0.735089,0.761886,0.572162
0.663591,0.735018,0.76181,0.572105
0.663193,0.734948,0.761734,0.572048
0.662795,0.734877,0.761657,0.57199
0.662397,0.734806,0.761581,0.571933
0.662,0.734736,0.761505,0.571876
0.661603,0.734665,0.761429,0.571819
0.661206,0.734595,0.761353,0.571762
0.660809,0.734524,0.761277,0.571705
0.660743,0.734453,0.761201,0.571647
0.660677,0.734383,0.783958,0.57159
0.66028,0.734312,0.78388,0.571533
0.659884,0.734241,0.783801,0.571476
0.659488,0.734171,0.783723,0.571419
0.659093,0.7341,0.783645,0.571362
0.658697,0.73403,0.783566,0.571304
0.658302,0.733959,0.783488,0.571247
0.657907,0.733889,0.78341,0.57119
0.657512,0.733818,0.783331,0.571133
0.657118,0.733747,0.783253,0.571076
0.656724,0.733677,0.783175,0.571019
0.65633,0.733606,0.783096,0.570962
0.655936,0.733536,0.783018,0.570905
0.655542,0.733465,0.78294,0.570848
0.655149,0.733395,0.782861,0.57079
0.654756,0.733324,0.782783,0.570733
0.654363,0.733254,0.782705,0.570676
0.653971,0.733183,0.782627,0.570619
0.653578,0.733113,0.782548,0.570562
0.653186,0.733042,0.78247,0.570505
0.652794,0.732972,0.782392,0.570448
0.652403,0.732901,0.782314,0.570391
0.652337,0.732831,0.782235,0.570334
0.652272,0.732761,0.805622,0.570277
0.651881,0.73269,0.805541,0.57022
0.65149,0.73262,0.805461,0.570163
0.651099,0.732549,0.80538,0.570106
0.650708,0.732479,0.8053,0.570049
0.650318,0.732408,0.805219,0.569992
0.649928,0.732338,0.805139,0.569935
0.649538,0.732268,0.805058,0.569878
0.649148,0.732197,0.804978,0.569821
0.648759,0.732127,0.804897,0.569764
0.64837,0.732056,0.804817,0.569707
0.647981,0.731986,0.804736,0.56965
0.647592,0.731916,0.804656,0.569593
0.647527,0.731845,0.804575,0.569536
0.647462,0.731775,0.828629,0.569479
0.647074,0.731704,0.828547,0.569422
0.646686,0.731634,0.828464,0.569365
0.646298,0.731564,0.828381,0.569308
0.64591,0.731493,0.828298,0.569251
0.645522,0.731423,0.828215,0.569194
0.645135,0.731353,0.828132,0.569137
0.644748,0.731283,0.82805,0.569081
0.644361,0.731212,0.827967,0.569024
0.643975,0.731142,0.827884,0.568967
0.643588,0.731072,0.827801,0.56891
0.643202,0.731001,0.827718,0.568853
0.642816,0.730931,0.827636,0.568796
0.642431,0.730861,0.827553,0.568739
0.642045,0.730791,0.82747,0.568682
0.64166,0.73072,0.827387,0.568625
0.641275,0.73065,0.827305,0.568569
0.64089,0.73058,0.827222,0.568512
0.640506,0.73051,0.827139,0.568455
0.640122,0.730439,0.827056,0.568398
0.639737,0.730369,0.826974,0.568341
0.639354,0.730299,0.826891,0.568284
0.63897,0.730229,0.826808,0.568228
0.638587,0.730158,0.826726,0.568171
0.638204,0.730088,0.826643,0.568114
0.63814,0.730018,0.82656,0.568057
0.638076,0.729948,0.851272,0.568
0.637693,0.729878,0.851187,0.567943
0.637311,0.729807,0.851102,0.567887
0.636928,0.729737,0.851017,0.56783
0.636546,0.729667,0.850932,0.567773
0.636164,0.729597,0.850847,0.567716
0.635783,0.729527,0.850761,0.56766
0.635401,0.729457,0.850676,0.567603
0.63502,0.729387,0.850591,0.567546
0.634639,0.729316,0.850506,0.567489
0.634258,0.729246,0.850421,0.567433
0.633878,0.729176,0.850336,0.567376
0.633497,0.729106,0.850251,0.567319
0.633117,0.729036,0.850166,0.567262
0.632737,0.728966,0.850081,0.567206
0.632358,0.728896,0.849996,0.567149
0.631978,0.728826,0.849911,0.567092
0.631599,0.728756,0.849826,0.567035
0.63122,0.728686,0.849741,0.566979
0.630842,0.728616,0.849656,0.566922
0.630463,0.728546,0.849571,0.566865
0.630085,0.728476,0.849486,0.566809
0.629707,0.728405,0.849401,0.566752
0.629329,0.728335,0.849316,0.566695
0.628952,0.728265,0.849231,0.566639
0.628574,0.728195,0.849146,0.566582
0.628197,0.728125,0.849062,0.566525
0.628134,0.728055,0.848977,0.566469
0.628071,0.727985,0.874358,0.566412
0.627695,0.727915,0.874271,0.566355
0.627318,0.727845,0.874184,0.566299
0.626942,0.727775,0.874096,0.566242
0.626566,0.727705,0.874009,0.566186
0.62619,0.727636,0.873921,0.566129
0.625814,0.727566,0.873834,0.566072
0.625439,0.727496,0.873747,0.566016
0.625063,0.727426,0.873659,0.565959
0.624688,0.727356,0.873572,0.565902
0.624314,0.727286,0.873485,0.565846
0.623939,0.727216,0.873397,0.565789
0.623565,0.727146,0.87331,0.565733
0.623191,0.727076,0.873222,0.565676
0.622817,0.727006,0.873135,0.56562
0.622443,0.726936,0.873048,0.565563
0.62207,0.726866,0.872961,0.565506
0.621696,0.726796,0.872873,0.56545
0.621323,0.726727,0.872786,0.565393
0.620951,0.726657,0.872699,0.565337
0.620578,0.726587,0.872611,0.56528
0.620516,0.726517,0.872524,0.565224
0.620454,0.726447,0.89861,0.565167
0.620082,0.726377,0.89852,0.565111
0.61971,0.726308,0.89843,0.565054
0.619338,0.726238,0.89834,0.564998
0.618966,0.726168,0.898251,0.564941
0.618595,0.726098,0.898161,0.564885
0.618224,0.726028,0.898071,0.564828
0.617853,0.725958,0.897981,0.564772
0.617482,0.725889,0.897891,0.564715
0.617112,0.725819,0.897802,0.564659
0.616742,0.725749,0.897712,0.564602
0.616372,0.725679,0.897622,0.564546
0.616002,0.72561,0.897532,0.564489
0.615632,0.72554,0.897443,0.564433
0.615263,0.72547,0.897353,0.564377
0.614894,0.7254,0.897263,0.56432
0.614525,0.725331,0.897173,0.564264
0.614156,0.725261,0.897084,0.564207
0.613788,0.725191,0.896994,0.564151
0.613419,0.725121,0.896904,0.564094
0.613051,0.725052,0.896814,0.564038
0.612684,0.724982,0.896725,0.563982
0.612316,0.724912,0.896635,0.563925
0.611949,0.724843,0.896545,0.563869
0.611582,0.724773,0.896456,0.563812
0.611215,0.724703,0.896366,0.563756
0.610848,0.724633,0.896277,0.5637
0.610481,0.724564,0.896187,0.563643
0.610115,0.724494,0.896097,0.563587
0.609749,0.724424,0.896008,0.563531
0.609383,0.724355,0.895918,0.563474
0.609018,0.724285,0.895828,0.563418
0.608652,0.724216,0.895739,0.563362
0.608287,0.724146,0.895649,0.563305
0.607922,0.724076,0.89556,0.563249
0.607557,0.724007,0.89547,0.563193
0.607193,0.723937,0.895381,0.563136
0.607132,0.723868,0.895291,0.56308
0.607072,0.723798,0.922058,0.563024
0.606707,0.723728,0.921965,0.562967
0.606343,0.723659,0.921873,0.562911
0.60598,0.723589,0.921781,0.562855
0.605616,0.72352,0.921689,0.562798
0.605253,0.72345,0.921597,0.562742
0.60489,0.72338,0.921505,0.562686
0.604527,0.723311,0.921412,0.56263
0.604164,0.723241,0.92132,0.562573
0.603801,0.723172,0.921228,0.562517
0.603439,0.723102,0.921136,0.562461
0.603077,0.723033,0.921044,0.562405
0.602715,0.722963,0.920952,0.562348
0.602354,0.722894,0.92086,0.562292
0.601992,0.722824,0.920768,0.562236
0.601631,0.722755,0.920676,0.56218
0.60127,0.722685,0.920583,0.562123
0.60091,0.722616,0.920491,0.562067
0.600549,0.722546,0.920399,0.562011
0.600189,0.722477,0.920307,0.561955
0.599829,0.722407,0.920215,0.561899
0.599469,0.722338,0.920123,0.561842
0.599109,0.722269,0.920031,0.561786
0.59875,0.722199,0.919939,0.56173
0.59839,0.72213,0.919847,0.561674
0.598031,0.72206,0.919755,0.561618
0.597673,0.721991,0.919663,0.561562
0.597314,0.721921,0.919571,0.561505
0.596956,0.721852,0.919479,0.561449
0.596598,0.721783,0.919387,0.561393
0.59624,0.721713,0.919295,0.561337
0.595882,0.721644,0.919204,0.561281
0.595524,0.721574,0.919112,0.561225
0.595167,0.721505,0.91902,0.561169
0.59481,0.721436,0.918928,0.561112
0.594453,0.721366,0.918836,0.561056
0.594097,0.721297,0.918744,0.561
0.59374,0.721228,0.918652,0.560944
0.593681,0.721158,0.91856,0.560888
0.593621,0.721089,0.946022,0.560832
0.593265,0.72102,0.945928,0.560776
0.592909,0.72095,0.945833,0.56072
0.592554,0.720881,0.945739,0.560664
0.592198,0.720812,0.945644,0.560608
0.591843,0.720742,0.94555,0.560552
0.591488,0.720673,0.945455,0.560496
0.591133,0.720604,0.94536,0.560439
0.590778,0.720535,0.945266,0.560383
0.590424,0.720465,0.945171,0.560327
0.59007,0.720396,0.945077,0.560271
0.589716,0.720327,0.944982,0.560215
0.589362,0.720257,0.944888,0.560159
0.589008,0.720188,0.944793,0.560103
0.588655,0.720119,0.944699,0.560047
0.588596,0.72005,0.944604,0.559991
0.588537,0.719981,0.972845,0.559935
0.588184,0.719911,0.972748,0.559879
0.587831,0.719842,0.972651,0.559823
0.587478,0.719773,0.972553,0.559767
0.587126,0.719704,0.972456,0.559711
0.586774,0.719635,0.972359,0.559655
0.586422,0.719565,0.972262,0.559599
0.58607,0.719496,0.972165,0.559543
0.585718,0.719427,0.972067,0.559487
0.585367,0.719358,0.97197,0.559432
0.585016,0.719289,0.971873,0.559376
0.584665,0.71922,0.971776,0.55932
0.584314,0.71915,0.971679,0.559264
0.583963,0.719081,0.971581,0.559208
0.583613,0.719012,0.971484,0.559152
0.583263,0.718943,0.971387,0.559096
0.582913,0.718874,0.97129,0.55904
0.582563,0.718805,0.971193,0.558984
0.582214,0.718736,0.971096,0.558928
0.581864,0.718667,0.970999,0.558872
0.581515,0.718597,0.970901,0.558816
0.581166,0.718528,0.970804,0.558761
0.580818,0.718459,0.970707,0.558705
0.580469,0.71839,0.97061,0.558649
0.580121,0.718321,0.970513,0.558593
0.579773,0.718252,0.970416,0.558537
0.579425,0.718183,0.970319,0.558481
0.579078,0.718114,0.970222,0.558425
0.57873,0.718045,0.970125,0.55837
0.578383,0.717976,0.970028,0.558314
0.578036,0.717907,0.969931,0.558258
0.577689,0.717838,0.969834,0.558202
0.577631,0.717769,0.969737,0.558146
0.577574,0.7177,0.998729,0.55809
0.577227,0.717631,0.998629,0.558035
0.576881,0.717562,0.99853,0.557979
0.576535,0.717493,0.99843,0.557923
0.576189,0.717424,0.99833,0.557867
0.575843,0.717355,0.99823,0.557811
0.575498,0.717286,0.99813,0.557756
0.575152,0.717217,0.99803,0.5577
0.574807,0.717148,0.997931,0.557644
0.574462,0.717079,0.997831,0.557588
0.574118,0.71701,0.997731,0.557533
0.573773,0.716941,0.997631,0.557477
0.573429,0.716872,0.997531,0.557421
0.573085,0.716803,0.997432,0.557365
0.572741,0.716734,0.997332,0.55731
0.572398,0.716665,0.997232,0.557254
0.572054,0.716597,0.997132,0.557198
0.571711,0.716528,0.997033,0.557142
0.571368,0.716459,0.996933,0.557087
0.571025,0.71639,0.996833,0.557031
0.570683,0.716321,0.996734,0.556975
0.57034,0.716252,0.996634,0.55692
0.569998,0.716183,0.996534,0.556864
0.569656,0.716114,0.996435,0.556808
0.569314,0.716046,0.996335,0.556753
0.568973,0.715977,0.996235,0.556697
0.568631,0.715908,0.996136,0.556641
0.56829,0.715839,0.996036,0.556586
0.567949,0.71577,0.995937,0.55653
0.567609,0.715701,0.995837,0.556474
0.567268,0.715633,0.995737,0.556419
0.566928,0.715564,0.995638,0.556363
0.566588,0.715495,0.995538,0.556307
0.566248,0.715426,0.995439,0.556252
0.565908,0.715358,0.995339,0.556196
0.565568,0.715289,0.99524,0.55614
0.565229,0.71522,0.99514,0.556085
0.56489,0.715151,0.995041,0.556029
0.564551,0.715082,0.994941,0.555974
0.564212,0.715014,0.994842,0.555918
0.563874,0.714945,0.994742,0.555862
0.563536,0.714876,0.994643,0.555807
0.563198,0.714807,0.994543,0.555751
0.563141,0.714739,0.994444,0.555696
0.563085,0.71467,1,0.55564
0.562747,0.714601,0.9999,0.555585
0.562409,0.714533,0.9998,0.555529
0.562072,0.714464,0.9997,0.555473
0.561735,0.714395,0.9996,0.555418
0.561398,0.714327,0.9995,0.555362
0.561061,0.714258,0.9994,0.555307
0.560724,0.714189,0.9993,0.555251
0.560388,0.714121,0.9992,0.555196
0.560052,0.714052,0.9991,0.55514
0.559716,0.713983,0.999,0.555085
0.55938,0.713915,0.998901,0.555029
0.559044,0.713846,0.998801,0.554974
0.558709,0.713777,0.998701,0.554918
0.558374,0.713709,0.998601,0.554863
0.558039,0.71364,0.998501,0.554807
0.557704,0.713571,0.998401,0.554752
0.557369,0.713503,0.998301,0.554696
0.557035,0.713434,0.998202,0.554641
0.556701,0.713366,0.998102,0.554585
0.556367,0.713297,0.998002,0.55453
0.556033,0.713229,0.997902,0.554474
0.555699,0.71316,0.997802,0.554419
0.555366,0.713091,0.997703,0.554364
0.555033,0.713023,0.997603,0.554308
0.5547,0.712954,0.997503,0.554253
0.554367,0.712886,0.997403,0.554197
0.554035,0.712817,0.997304,0.554142
0.553702,0.712749,0.997204,0.554086
0.55337,0.71268,0.997104,0.554031
0.553038,0.712612,0.997004,0.553976
0.552983,0.712543,0.996905,0.55392
0.552927,0.712475,1,0.553865
0.552596,0.712406,0.9999,0.553809
0.552264,0.712338,0.9998,0.553754
0.551933,0.712269,0.9997,0.553699
0.551602,0.712201,0.9996,0.553643
0.551271,0.712132,0.9995,0.553588
0.55094,0.712064,0.9994,0.553533
0.550609,0.711995,0.9993,0.553477
0.550279,0.711927,0.9992,0.553422
0.549949,0.711858,0.9991,0.553367
0.549619,0.71179,0.999,0.553311
0.549289,0.711722,0.998901,0.553256
0.54896,0.711653,0.998801,0.553201
0.54863,0.711585,0.998701,0.553145
0.548301,0.711516,0.998601,0.55309
0.547972,0.711448,0.998501,0.553035
0.547643,0.711379,0.998401,0.552979
0.547315,0.711311,0.998301,0.552924
0.546987,0.711243,0.998202,0.552869
0.546658,0.711174,0.998102,0.552813
0.54633,0.711106,0.998002,0.552758
0.546003,0.711038,0.997902,0.552703
0.545675,0.710969,0.997802,0.552648
0.545348,0.710901,0.997703,0.552592
0.545021,0.710832,0.997603,0.552537
0.544694,0.710764,0.997503,0.552482
0.544367,0.710696,0.997403,0.552427
0.54404,0.710627,0.997304,0.552371
0.543986,0.710559,0.997204,0.552316
0.543931,0.710491,1,0.552261
0.543605,0.710423,0.9999,0.552206
0.543279,0.710354,0.9998,0.55215
0.542953,0.710286,0.9997,0.552095
0.542627,0.710218,0.9996,0.55204
0.542302,0.710149,0.9995,0.551985
0.541976,0.710081,0.9994,0.55193
0.541651,0.710013,0.9993,0.551874
0.541326,0.709945,0.9992,0.551819
0.541001,0.709876,0.9991,0.551764
0.540677,0.709808,0.999,0.551709
0.540352,0.70974,0.998901,0.551654
0.540028,0.709672,0.998801,0.551599
0.539704,0.709603,0.998701,0.551543
0.53938,0.709535,0.998601,0.551488
0.539057,0.709467,0.998501,0.551433
0.538733,0.709399,0.998401,0.551378
0.53841,0.709331,0.998301,0.551323
0.538087,0.709262,0.998202,0.551268
0.537764,0.709194,0.998102,0.551213
0.537442,0.709126,0.998002,0.551157
0.537119,0.709058,0.997902,0.551102
0.536797,0.70899,0.997802,0.551047
0.536475,0.708921,0.997703,0.550992
0.536153,0.708853,0.997603,0.550937
0.535832,0.708785,0.997503,0.550882
0.53551,0.708717,0.997403,0.550827
0.535189,0.708649,0.997304,0.550772
0.535135,0.708581,0.997204,0.550717
0.535082,0.708513,1,0.550662
0.534761,0.708444,0.9999,0.550606
0.53444,0.708376,0.9998,0.550551
0.534119,0.708308,0.9997,0.550496
0.533799,0.70824,0.9996,0.550441
0.533479,0.708172,0.9995,0.550386
0.533159,0.708104,0.9994,0.550331
0.532839,0.708036,0.9993,0.550276
0.532519,0.707968,0.9992,0.550221
0.532199,0.7079,0.9991,0.550166
0.53188,0.707832,0.999,0.550111
0.531561,0.707764,0.998901,0.550056
0.531242,0.707696,0.998801,0.550001
0.530923,0.707628,0.998701,0.549946
0.530605,0.70756,0.998601,0.549891
0.530287,0.707492,0.998501,0.549836
0.529968,0.707423,0.998401,0.549781
0.52965,0.707355,0.998301,0.549726
0.529333,0.707287,0.998202,0.549671
0.529015,0.707219,0.998102,0.549616
0.528698,0.707151,0.998002,0.549561
0.528381,0.707083,0.997902,0.549506
0.528064,0.707016,0.997802,0.549451
0.527747,0.706948,0.997703,0.549396
0.52743,0.70688,0.997603,0.549341
0.527114,0.706812,0.997503,0.549287
0.526797,0.706744,0.997403,0.549232
0.526481,0.706676,0.997304,0.549177
0.526166,0.706608,0.997204,0.549122
0.52585,0.70654,0.997104,0.549067
0.525534,0.706472,0.997004,0.549012
0.525219,0.706404,0.996905,0.548957
0.524904,0.706336,0.996805,0.548902
0.524589,0.706268,0.996705,0.548847
0.524274,0.7062,0.996606,0.548792
0.52396,0.706132,0.996506,0.548738
0.523645,0.706064,0.996406,0.548683
0.523331,0.705997,0.996307,0.548628
0.523017,0.705929,0.996207,0.548573
0.522965,0.705861,0.996107,0.548518
0.522913,0.705793,1,0.548463
0.522599,0.705725,0.9999,0.548408
0.522285,0.705657,0.9998,0.548354
0.521972,0.705589,0.9997,0.548299
0.521659,0.705522,0.9996,0.548244
0.521346,0.705454,0.9995,0.548189
0.521033,0.705386,0.9994,0.548134
0.520721,0.705318,0.9993,0.548079
0.520408,0.70525,0.9992,0.548025
0.520096,0.705183,0.9991,0.54797
0.519784,0.705115,0.999,0.547915
0.519472,0.705047,0.998901,0.54786
0.51916,0.704979,0.998801,0.547805
0.518849,0.704911,0.998701,0.547751
0.518538,0.704844,0.998601,0.547696
0.518227,0.704776,0.998501,0.547641
0.517916,0.704708,0.998401,0.547586
0.517605,0.70464,0.998301,0.547532
0.517294,0.704573,0.998202,0.547477
0.516984,0.704505,0.998102,0.547422
0.516674,0.704437,0.998002,0.547367
0.516364,0.704369,0.997902,0.547313
0.516054,0.704302,0.997802,0.547258
0.515745,0.704234,0.997703,0.547203
0.515435,0.704166,0.997603,0.547148
0.515126,0.704099,0.997503,0.547094
0.514817,0.704031,0.997403,0.547039
0.514508,0.703963,0.997304,0.546984
0.514199,0.703895,0.997204,0.54693
0.513891,0.703828,0.997104,0.546875
0.513583,0.70376,0.997004,0.54682
0.513274,0.703692,0.996905,0.546766
0.512966,0.703625,0.996805,0.546711
0.512659,0.703557,0.996705,0.546656
0.512351,0.70349,0.996606,0.546601
0.512044,0.703422,0.996506,0.546547
0.511737,0.703354,0.996406,0.546492
0.51143,0.703287,0.996307,0.546438
0.511123,0.703219,0.996207,0.546383
0.510816,0.703151,0.996107,0.546328
0.51051,0.703084,0.996008,0.546274
0.510203,0.703016,0.995908,0.546219
0.509897,0.702949,0.995809,0.546164
0.509591,0.702881,0.995709,0.54611
0.509286,0.702813,0.995609,0.546055
0.50898,0.702746,0.99551,0.546001
0.508675,0.702678,0.99541,0.545946
0.508369,0.702611,0.995311,0.545891
0.508064,0.702543,0.995211,0.545837
0.50776,0.702476,0.995112,0.545782
0.507455,0.702408,0.995012,0.545728
0.507151,0.702341,0.994913,0.545673
0.506846,0.702273,0.994813,0.545618
0.506542,0.702206,0.994714,0.545564
0.506238,0.702138,0.994614,0.545509
0.506188,0.702071,0.994515,0.545455
0.506137,0.702003,1,0.5454
0.505833,0.701936,0.9999,0.545346
0.50553,0.701868,0.9998,0.545291
0.505227,0.701801,0.9997,0.545237
0.504924,0.701733,0.9996,0.545182
0.504621,0.701666,0.9995,0.545128
0.504318,0.701598,0.9994,0.545073
0.504015,0.701531,0.9993,0.545019
0.503713,0.701463,0.9992,0.544964
0.503411,0.701396,0.9991,0.54491
0.503109,0.701328,0.999,0.544855
0.502807,0.701261,0.998901,0.544801
0.502505,0.701194,0.998801,0.544746
0.502204,0.701126,0.998701,0.544692
0.502154,0.701059,0.998601,0.544637
0.502103,0.700991,1,0.544583
0.501802,0.700924,0.9999,0.544528
0.501501,0.700857,0.9998,0.544474
0.5012,0.700789,0.9997,0.544419
0.500899,0.700722,0.9996,0.544365
0.500599,0.700654,0.9995,0.54431
0.500299,0.700587,0.9994,0.544256
0.499998,0.70052,0.9993,0.544202
0.499698,0.700452,0.9992,0.544147
0.499399,0.700385,0.9991,0.544093
0.499099,0.700318,0.999,0.544038
0.4988,0.70025,0.998901,0.543984
0.4985,0.700183,0.998801,0.54393
0.498201,0.700116,0.998701,0.543875
0.497902,0.700048,0.998601,0.543821
0.497604,0.699981,0.998501,0.543766
0.497305,0.699914,0.998401,0.543712
0.497007,0.699847,0.998301,0.543658
0.496709,0.699779,0.998202,0.543603
0.496411,0.699712,0.998102,0.543549
0.496113,0.699645,0.998002,0.543495
0.495815,0.699577,0.997902,0.54344
0.495518,0.69951,0.997802,0.543386
0.49522,0.699443,0.997703,0.543332
0.494923,0.699376,0.997603,0.543277
0.494626,0.699308,0.997503,0.543223
0.49433,0.699241,0.997403,0.543169
0.494033,0.699174,0.997304,0.543114
0.493737,0.699107,0.997204,0.54306
0.49344,0.69904,0.997104,0.543006
0.493144,0.698972,0.997004,0.542951
0.492848,0.698905,0.996905,0.542897
0.492553,0.698838,0.996805,0.542843
0.492257,0.698771,0.996705,0.542788
0.491962,0.698704,0.996606,0.542734
0.491667,0.698636,0.996506,0.54268
0.491372,0.698569,0.996406,0.542626
0.491077,0.698502,0.996307,0.542571
0.490782,0.698435,0.996207,0.542517
0.490488,0.698368,0.996107,0.542463
0.490194,0.698301,0.996008,0.542409
0.4899,0.698234,0.995908,0.542354
0.489851,0.698166,0.995809,0.5423
0.489802,0.698099,1,0.542246
