energy,productivity,fun,hunger
0.76226,0.650904,0.654588,0.792903
0.762184,0.650794,0.654522,0.792823
0.761727,0.650684,0.654457,0.792744
0.76127,0.650575,0.654391,0.792665
0.760813,0.650465,0.654326,0.792586
0.760356,0.650355,0.65426,0.792506
0.7599,0.650246,0.654195,0.792427
0.759444,0.650136,0.65413,0.792348
0.758989,0.650026,0.654064,0.792269
0.758533,0.649917,0.653999,0.792189
0.758078,0.649807,0.653933,0.79211
0.757624,0.649698,0.653868,0.792031
0.757169,0.649588,0.653803,0.791952
0.756715,0.649479,0.653737,0.791873
0.756261,0.649369,0.653672,0.791793
0.755807,0.64926,0.653606,0.791714
0.755354,0.64915,0.653541,0.791635
0.7549,0.649041,0.653476,0.791556
0.754447,0.648932,0.65341,0.791477
0.753995,0.648822,0.653345,0.791398
0.753542,0.648713,0.65328,0.791318
0.751207,0.649252,0.650601,0.791239
0.748878,0.649792,0.647934,0.79116
0.746557,0.650332,0.645278,0.791081
0.744243,0.650872,0.642633,0.791002
0.741936,0.651413,0.639998,0.790923
0.739636,0.651955,0.637374,0.790844
0.737343,0.652497,0.634761,0.790765
0.735058,0.653039,0.632159,0.790686
0.732779,0.653582,0.629568,0.790606
0.730508,0.654125,0.626987,0.790527
0.728244,0.654669,0.624416,0.790448
0.725986,0.655213,0.621856,0.790369
0.723736,0.655758,0.619307,0.79029
0.721493,0.656303,0.616768,0.790211
0.719256,0.656849,0.61424,0.790132
0.717027,0.657395,0.611721,0.790053
0.714804,0.657941,0.609214,0.789974
0.712589,0.658488,0.606716,0.789895
0.71038,0.659035,0.604229,0.789816
0.708178,0.659583,0.601752,0.789737
0.705983,0.660131,0.599285,0.789658
0.703794,0.66068,0.596828,0.789579
0.701613,0.661229,0.594381,0.7895
0.699438,0.661779,0.591944,0.789421
0.69727,0.662329,0.589518,0.789342
0.695109,0.66288,0.587101,0.789264
0.692954,0.663431,0.584694,0.789185
0.690806,0.663982,0.582297,0.789106
0.688665,0.664534,0.57991,0.789027
0.68653,0.665087,0.577532,0.788948
0.684402,0.665639,0.575165,0.788869
0.682281,0.666193,0.572807,0.78879
0.680166,0.666746,0.570459,0.788711
0.678057,0.667301,0.56812,0.788632
0.675956,0.667855,0.565791,0.788553
0.67386,0.668411,0.563471,0.788475
0.671772,0.668966,0.561161,0.788396
0.669689,0.669522,0.558861,0.788317
0.667613,0.670079,0.55657,0.788238
0.665544,0.670636,0.554288,0.788159
0.663481,0.671193,0.552016,0.78808
0.661424,0.671751,0.549753,0.788002
0.659374,0.67231,0.547499,0.787923
0.65733,0.672868,0.545254,0.787844
0.655293,0.673428,0.543019,0.787765
0.653262,0.673988,0.540793,0.787687
0.651237,0.674548,0.538576,0.787608
0.649218,0.675109,0.536368,0.787529
0.647206,0.67567,0.534169,0.78745
0.6452,0.676231,0.531979,0.787371
0.6432,0.676794,0.529798,0.787293
0.641206,0.677356,0.527626,0.787214
0.639218,0.677919,0.525463,0.787135
0.637237,0.678483,0.523309,0.787057
0.635262,0.679047,0.521164,0.786978
0.633293,0.679611,0.519027,0.786899
0.63133,0.680176,0.516899,0.78682
0.629373,0.680741,0.51478,0.786742
0.627422,0.681307,0.51267,0.786663
0.625477,0.681874,0.510568,0.786584
0.623538,0.68244,0.508475,0.786506
0.621605,0.683008,0.50639,0.786427
0.619679,0.683576,0.504314,0.786349
0.617758,0.684144,0.502247,0.78627
0.615843,0.684712,0.500188,0.786191
0.613934,0.685282,0.498137,0.786113
0.612031,0.685851,0.496095,0.786034
0.610134,0.686421,0.494061,0.785955
0.608243,0.686992,0.492036,0.785877
0.606357,0.687563,0.490019,0.785798
0.604478,0.688135,0.48801,0.78572
0.602604,0.688707,0.486009,0.785641
0.600736,0.689279,0.484017,0.785563
0.598874,0.689852,0.482032,0.785484
0.597018,0.690425,0.480056,0.785405
0.595167,0.690999,0.478088,0.785327
0.593322,0.691574,0.476128,0.785248
0.591483,0.692149,0.474176,0.78517
0.58965,0.692724,0.472232,0.785091
0.587822,0.6933,0.470296,0.785013
0.586,0.693876,0.468368,0.784934
0.584184,0.694453,0.466448,0.784856
0.582373,0.69503,0.464536,0.784777
0.580568,0.695608,0.462632,0.784699
0.578768,0.696186,0.460735,0.78462
0.576974,0.696765,0.458846,0.784542
0.575186,0.697344,0.456965,0.784463
0.573403,0.697924,0.455092,0.784385
0.571625,0.698504,0.453226,0.784307
0.569853,0.699084,0.451368,0.784228
0.568087,0.699666,0.449518,0.78415
0.566326,0.700247,0.447675,0.784071
0.564571,0.700829,0.445839,0.783993
0.562821,0.701412,0.444012,0.783914
0.561076,0.701995,0.442191,0.783836
0.559337,0.702578,0.440379,0.783758
0.557603,0.703162,0.438573,0.783679
0.555875,0.703747,0.436775,0.783601
0.554152,0.704332,0.434985,0.783523
0.552434,0.704917,0.433201,0.783444
0.550722,0.705503,0.431425,0.783366
0.549015,0.70609,0.429657,0.783288
0.547313,0.706677,0.427895,0.783209
0.545616,0.707264,0.426141,0.783131
0.543925,0.707852,0.424394,0.783053
0.542239,0.708441,0.422654,0.782974
0.540558,0.709029,0.420922,0.782896
0.538883,0.709619,0.419196,0.782818
0.537212,0.710209,0.417477,0.782739
0.535547,0.710799,0.415766,0.782661
0.533887,0.71139,0.414061,0.782583
0.532232,0.711981,0.412364,0.782505
0.530582,0.712573,0.410673,0.782426
0.528938,0.713165,0.40899,0.782348
0.527298,0.713758,0.407313,0.78227
0.525664,0.714352,0.405643,0.782192
0.524034,0.714945,0.40398,0.782113
0.52241,0.71554,0.402324,0.782035
0.520791,0.716134,0.400675,0.781957
0.519176,0.71673,0.399032,0.781879
0.517567,0.717326,0.397396,0.781801
0.515963,0.717922,0.395767,0.781722
0.514363,0.718519,0.394145,0.781644
0.512769,0.719116,0.392529,0.781566
0.51118,0.719714,0.39092,0.781488
0.509595,0.720312,0.389317,0.78141
0.508016,0.720911,0.387721,0.781332
0.506441,0.72151,0.386131,0.781254
0.504871,0.72211,0.384548,0.781175
0.503306,0.72271,0.382972,0.781097
0.501746,0.723311,0.381402,0.781019
0.500191,0.723912,0.379838,0.780941
0.49864,0.724514,0.378281,0.780863
0.497095,0.725116,0.37673,0.780785
0.495554,0.725719,0.375186,0.780707
0.494018,0.726322,0.373648,0.780629
0.492486,0.726926,0.372116,0.780551
0.49096,0.72753,0.37059,0.780473
0.489438,0.728135,0.369071,0.780395
0.487921,0.72874,0.367558,0.780317
0.486409,0.729346,0.366051,0.780239
0.484901,0.729952,0.364551,0.780161
0.483398,0.730559,0.363056,0.780083
0.481899,0.731166,0.361568,0.780004
0.480406,0.731774,0.360085,0.779926
0.478917,0.732382,0.358609,0.779849
0.477432,0.732991,0.357139,0.779771
0.475952,0.7336,0.355675,0.779693
0.474477,0.73421,0.354217,0.779615
0.473006,0.73482,0.352765,0.779537
0.47154,0.735431,0.351319,0.779459
0.470078,0.736042,0.349878,0.779381
0.468621,0.736654,0.348444,0.779303
0.467169,0.737267,0.347015,0.779225
0.465721,0.73788,0.345593,0.779147
0.464277,0.738493,0.344176,0.779069
0.462838,0.739107,0.342765,0.778991
0.461403,0.739721,0.34136,0.778913
0.459973,0.740336,0.33996,0.778835
0.458547,0.740951,0.338567,0.778757
0.457126,0.741567,0.337179,0.77868
0.455709,0.742184,0.335796,0.778602
0.454296,0.742801,0.33442,0.778524
0.452888,0.743418,0.333049,0.778446
0.451484,0.744036,0.331683,0.778368
0.450085,0.744655,0.330324,0.77829
0.44869,0.745274,0.328969,0.778212
0.447299,0.745893,0.327621,0.778135
0.445912,0.746513,0.326278,0.778057
0.44453,0.747134,0.32494,0.777979
0.443152,0.747755,0.323608,0.777901
0.443108,0.747629,0.323576,0.777823
0.443064,0.747503,0.323543,0.777746
0.443019,0.747377,0.323511,0.777668
0.442975,0.747251,0.323479,0.77759
0.442931,0.747125,0.323446,0.777512
0.442886,0.746999,0.323414,0.777435
0.442842,0.746873,0.323382,0.777357
0.442798,0.746747,0.323349,0.777279
0.442754,0.746621,0.323317,0.777201
0.442709,0.746495,0.323285,0.777124
0.442665,0.746369,0.323252,0.777046
0.442621,0.746243,0.32322,0.776968
0.442577,0.746118,0.323188,0.776891
0.442532,0.745992,0.323155,0.776813
0.442488,0.745866,0.323123,0.776735
0.442444,0.74574,0.323091,0.776658
0.4424,0.745615,0.323058,0.77658
0.442355,0.745489,0.323026,0.776502
0.442311,0.745363,0.322994,0.776425
0.442267,0.745238,0.322961,0.776347
0.442223,0.745112,0.322929,0.776269
0.442178,0.744986,0.322897,0.776192
0.442134,0.744861,0.322864,0.776114
0.44209,0.744735,0.322832,0.776036
0.442046,0.74461,0.3228,0.775959
0.442002,0.744484,0.322768,0.775881
0.441957,0.744359,0.322735,0.775804
0.441913,0.744233,0.322703,0.775726
0.441869,0.744108,0.322671,0.775648
0.441825,0.743982,0.322639,0.775571
0.441781,0.743857,0.322606,0.775493
0.441736,0.743731,0.322574,0.775416
0.441692,0.743606,0.322542,0.775338
0.441648,0.743481,0.32251,0.775261
0.441604,0.743355,0.322477,0.775183
0.44156,0.74323,0.322445,0.775106
0.441516,0.743105,0.322413,0.775028
0.441471,0.74298,0.322381,0.774951
0.441427,0.742854,0.322348,0.774873
0.441383,0.742729,0.322316,0.774796
0.441339,0.742604,0.322284,0.774718
0.441295,0.742479,0.322252,0.774641
0.441251,0.742354,0.322219,0.774563
0.441207,0.742228,0.322187,0.774486
0.441162,0.742103,0.322155,0.774408
0.441118,0.741978,0.322123,0.774331
0.441074,0.741853,0.322091,0.774253
0.44103,0.741728,0.322058,0.774176
0.440986,0.741603,0.322026,0.774099
0.440942,0.741478,0.321994,0.774021
0.440898,0.741353,0.321962,0.773944
0.440854,0.741228,0.321929,0.773866
0.44081,0.741103,0.321897,0.773789
0.440766,0.740978,0.321865,0.773712
0.440722,0.740853,0.321833,0.773634
0.440677,0.740728,0.321801,0.773557
0.440633,0.740603,0.321769,0.77348
0.440589,0.740479,0.321736,0.773402
0.440545,0.740354,0.321704,0.773325
0.440501,0.740229,0.321672,0.773248
0.440457,0.740104,0.32164,0.77317
0.440413,0.739979,0.321608,0.773093
0.440369,0.739855,0.321576,0.773016
0.440325,0.73973,0.321543,0.772938
0.440281,0.739605,0.321511,0.772861
0.440237,0.73948,0.321479,0.772784
0.440193,0.739356,0.321447,0.772706
0.440149,0.739231,0.321415,0.772629
0.440105,0.739107,0.321383,0.772552
0.440061,0.738982,0.321351,0.772475
0.440017,0.738857,0.321318,0.772397
0.439973,0.738733,0.321286,0.77232
0.439929,0.738608,0.321254,0.772243
0.439885,0.738484,0.321222,0.772166
0.439841,0.738359,0.32119,0.772088
0.439797,0.738235,0.321158,0.772011
0.439753,0.73811,0.321126,0.771934
0.439709,0.737986,0.321094,0.771857
0.439665,0.737862,0.321061,0.77178
0.439621,0.737737,0.321029,0.771703
0.439577,0.737613,0.320997,0.771625
0.439533,0.737488,0.320965,0.771548
0.439489,0.737364,0.320933,0.771471
0.439445,0.73724,0.320901,0.771394
0.439401,0.737116,0.320869,0.771317
0.439357,0.736991,0.320837,0.77124
0.439313,0.736867,0.320805,0.771162
0.439269,0.736743,0.320773,0.771085
0.439226,0.736619,0.32074,0.771008
0.439182,0.736494,0.320708,0.770931
0.439138,0.73637,0.320676,0.770854
0.439094,0.736246,0.320644,0.770777
0.43905,0.736122,0.320612,0.7707
0.439006,0.735998,0.32058,0.770623
0.438962,0.735874,0.320548,0.770546
0.438918,0.73575,0.320516,0.770469
0.438874,0.735626,0.320484,0.770392
0.43883,0.735502,0.320452,0.770315
0.438787,0.735378,0.32042,0.770238
0.438743,0.735254,0.320388,0.770161
0.438699,0.73513,0.320356,0.770084
0.438655,0.735006,0.320324,0.770007
0.438611,0.734882,0.320292,0.76993
0.438567,0.734758,0.32026,0.769853
0.438523,0.734634,0.320228,0.769776
0.438479,0.73451,0.320196,0.769699
0.438436,0.734387,0.320164,0.769622
0.438392,0.734263,0.320132,0.769545
0.438348,0.734139,0.3201,0.769468
0.438304,0.734015,0.320068,0.769391
0.43826,0.733892,0.320036,0.769314
0.438216,0.733768,0.320004,0.769237
0.438173,0.733644,0.319972,0.76916
0.438129,0.73352,0.31994,0.769083
0.438085,0.733397,0.319908,0.769006
0.438041,0.733273,0.319876,0.768929
0.437997,0.73315,0.319844,0.768852
0.437954,0.733026,0.319812,0.768775
0.43791,0.732902,0.31978,0.768699
0.437866,0.732779,0.319748,0.768622
0.437822,0.732655,0.319716,0.768545
0.437778,0.732532,0.319684,0.768468
0.437735,0.732408,0.319652,0.768391
0.437691,0.732285,0.31962,0.768314
0.437647,0.732161,0.319588,0.768237
0.437603,0.732038,0.319556,0.768161
0.43756,0.731915,0.319524,0.768084
0.437516,0.731791,0.319492,0.768007
0.437472,0.731668,0.31946,0.76793
0.437428,0.731544,0.319428,0.767853
0.437385,0.731421,0.319396,0.767777
0.437341,0.731298,0.319364,0.7677
0.437297,0.731175,0.319332,0.767623
0.437253,0.731051,0.3193,0.767546
0.43721,0.730928,0.319268,0.76747
0.437166,0.730805,0.319236,0.767393
0.437122,0.730682,0.319205,0.767316
0.437079,0.730558,0.319173,0.767239
0.437035,0.730435,0.319141,0.767163
0.436991,0.730312,0.319109,0.767086
0.436947,0.730189,0.319077,0.767009
0.436904,0.730066,0.319045,0.766933
0.43686,0.729943,0.319013,0.766856
0.436816,0.72982,0.318981,0.766779
0.436773,0.729697,0.318949,0.766702
0.436729,0.729574,0.318917,0.766626
0.436685,0.729451,0.318885,0.766549
0.436642,0.729328,0.318854,0.766472
0.436598,0.729205,0.318822,0.766396
0.436554,0.729082,0.31879,0.766319
0.436511,0.728959,0.318758,0.766243
0.436467,0.728836,0.318726,0.766166
0.436423,0.728713,0.318694,0.766089
0.43638,0.72859,0.318662,0.766013
0.436336,0.728468,0.31863,0.765936
0.436292,0.728345,0.318599,0.76586
0.436249,0.728222,0.318567,0.765783
0.436205,0.728099,0.318535,0.765706
0.436162,0.727976,0.318503,0.76563
0.436118,0.727854,0.318471,0.765553
0.436074,0.727731,0.318439,0.765477
0.436031,0.727608,0.318407,0.7654
0.435987,0.727486,0.318376,0.765324
0.435944,0.727363,0.318344,0.765247
0.4359,0.72724,0.318312,0.765171
0.435856,0.727118,0.31828,0.765094
0.435813,0.726995,0.318248,0.765018
0.435769,0.726873,0.318216,0.764941
0.435726,0.72675,0.318185,0.764865
0.435682,0.726628,0.318153,0.764788
0.435638,0.726505,0.318121,0.764712
0.435595,0.726383,0.318089,0.764635
0.435551,0.72626,0.318057,0.764559
0.435508,0.726138,0.318026,0.764482
0.435464,0.726015,0.317994,0.764406
0.435421,0.725893,0.317962,0.764329
0.435377,0.725771,0.31793,0.764253
0.435334,0.725648,0.317898,0.764176
0.43529,0.725526,0.317867,0.7641
0.435247,0.725404,0.317835,0.764024
0.435203,0.725281,0.317803,0.763947
0.435159,0.725159,0.317771,0.763871
0.435116,0.725037,0.31774,0.763794
0.435072,0.724915,0.317708,0.763718
0.435029,0.724792,0.317676,0.763642
0.434985,0.72467,0.317644,0.763565
0.434942,0.724548,0.317612,0.763489
0.434898,0.724426,0.317581,0.763413
0.434855,0.724304,0.317549,0.763336
0.434811,0.724182,0.317517,0.76326
0.434768,0.72406,0.317485,0.763184
0.434725,0.723938,0.317454,0.763107
0.434681,0.723816,0.317422,0.763031
0.434638,0.723693,0.31739,0.762955
0.434594,0.723571,0.317358,0.762878
0.434551,0.72345,0.317327,0.762802
0.434507,0.723328,0.317295,0.762726
0.434464,0.723206,0.317263,0.76265
0.43442,0.723084,0.317232,0.762573
0.434377,0.722962,0.3172,0.762497
0.434333,0.72284,0.317168,0.762421
0.43429,0.722718,0.317136,0.762344
0.434247,0.722596,0.317105,0.762268
0.434203,0.722474,0.317073,0.762192
0.43416,0.722353,0.317041,0.762116
0.434116,0.722231,0.31701,0.76204
0.434073,0.722109,0.316978,0.761963
0.434029,0.721987,0.316946,0.761887
0.433986,0.721866,0.316914,0.761811
0.433943,0.721744,0.316883,0.761735
0.433899,0.721622,0.316851,0.761659
0.433856,0.721501,0.316819,0.761582
0.433813,0.721379,0.316788,0.761506
0.433769,0.721257,0.316756,0.76143
0.433726,0.721136,0.316724,0.761354
0.433682,0.721014,0.316693,0.761278
0.433639,0.720893,0.316661,0.761202
0.433596,0.720771,0.316629,0.761126
0.433552,0.72065,0.316598,0.76105
0.433509,0.720528,0.316566,0.760973
0.433466,0.720407,0.316534,0.760897
0.433422,0.720285,0.316503,0.760821
0.433379,0.720164,0.316471,0.760745
0.433336,0.720042,0.316439,0.760669
0.433292,0.719921,0.316408,0.760593
0.433249,0.7198,0.316376,0.760517
0.433206,0.719678,0.316344,0.760441
0.433162,0.719557,0.316313,0.760365
0.433119,0.719436,0.316281,0.760289
0.433076,0.719314,0.31625,0.760213
0.433032,0.719193,0.316218,0.760137
0.432989,0.719072,0.316186,0.760061
0.432946,0.718951,0.316155,0.759985
0.432902,0.71883,0.316123,0.759909
0.432859,0.718708,0.316091,0.759833
0.432816,0.718587,0.31606,0.759757
0.432773,0.718466,0.316028,0.759681
0.432729,0.718345,0.315997,0.759605
0.432686,0.718224,0.315965,0.759529
0.432643,0.718103,0.315933,0.759453
0.432599,0.717982,0.315902,0.759377
0.432556,0.717861,0.31587,0.759301
0.432513,0.71774,0.315839,0.759225
0.43247,0.717619,0.315807,0.759149
0.432426,0.717498,0.315776,0.759073
0.432383,0.717377,0.315744,0.758997
0.43234,0.717256,0.315712,0.758921
0.432297,0.717135,0.315681,0.758846
0.432254,0.717014,0.315649,0.75877
0.43221,0.716893,0.315618,0.758694
0.432167,0.716772,0.315586,0.758618
0.432124,0.716651,0.315555,0.758542
0.432081,0.716531,0.315523,0.758466
0.432037,0.71641,0.315491,0.75839
0.431994,0.716289,0.31546,0.758315
0.431951,0.716168,0.315428,0.758239
0.431908,0.716048,0.315397,0.758163
0.431865,0.715927,0.315365,0.758087
0.431821,0.715806,0.315334,0.758011
0.431778,0.715685,0.315302,0.757935
0.431735,0.715565,0.315271,0.75786
0.431692,0.715444,0.315239,0.757784
0.431649,0.715324,0.315208,0.757708
0.431606,0.715203,0.315176,0.757632
0.431562,0.715082,0.315145,0.757557
0.431519,0.714962,0.315113,0.757481
0.431476,0.714841,0.315082,0.757405
0.431433,0.714721,0.31505,0.757329
0.43139,0.7146,0.315019,0.757254
0.431347,0.71448,0.314987,0.757178
0.431304,0.714359,0.314956,0.757102
0.43126,0.714239,0.314924,0.757026
0.431217,0.714119,0.314893,0.756951
0.431174,0.713998,0.314861,0.756875
0.431131,0.713878,0.31483,0.756799
0.431088,0.713758,0.314798,0.756724
0.431045,0.713637,0.314767,0.756648
0.431002,0.713517,0.314735,0.756572
0.430743,0.713397,0.314704,0.756497
0.430485,0.713276,0.314672,0.756421
0.430226,0.713156,0.314641,0.756345
0.429968,0.713036,0.314609,0.75627
0.42971,0.712916,0.314578,0.756194
0.429453,0.712795,0.314546,0.756119
0.429195,0.712675,0.314515,0.756043
0.428937,0.712555,0.314483,0.755967
0.42868,0.712435,0.314452,0.755892
0.428423,0.712315,0.314421,0.755816
0.428166,0.712195,0.314389,0.755741
0.427909,0.712075,0.314358,0.755665
0.427652,0.711955,0.314326,0.755589
0.427396,0.711835,0.314295,0.755514
0.426071,0.712426,0.313006,0.755438
0.42475,0.713019,0.311723,0.755363
0.423434,0.713611,0.310445,0.755287
0.422121,0.714205,0.309172,0.755212
0.420813,0.714798,0.307905,0.755136
0.419508,0.715392,0.306643,0.755061
0.418208,0.715987,0.305386,0.754985
0.416912,0.716582,0.304134,0.75491
0.415619,0.717178,0.302887,0.754834
0.414331,0.717774,0.301645,0.754759
0.413047,0.718371,0.300408,0.754683
0.411766,0.718968,0.299177,0.754608
0.41049,0.719566,0.29795,0.754532
0.409218,0.720164,0.296729,0.754457
0.407949,0.720762,0.295512,0.754381
0.406685,0.721361,0.294301,0.754306
0.405424,0.721961,0.293094,0.75423
0.404167,0.722561,0.291893,0.754155
0.402915,0.723162,0.290696,0.75408
0.401666,0.723763,0.289504,0.754004
0.400421,0.724365,0.288318,0.753929
0.399179,0.724967,0.287136,0.753853
0.397942,0.725569,0.285959,0.753778
0.396709,0.726172,0.284786,0.753703
0.395479,0.726776,0.283619,0.753627
0.394253,0.72738,0.282456,0.753552
0.393031,0.727985,0.281298,0.753477
0.391813,0.72859,0.280145,0.753401
0.390598,0.729196,0.278996,0.753326
0.389387,0.729802,0.277853,0.753251
0.38818,0.730408,0.276713,0.753175
0.386977,0.731016,0.275579,0.7531
0.385778,0.731623,0.274449,0.753025
0.384582,0.732231,0.273324,0.752949
0.38339,0.73284,0.272204,0.752874
0.382201,0.733449,0.271088,0.752799
0.381017,0.734059,0.269976,0.752723
0.379836,0.734669,0.26887,0.752648
0.378658,0.73528,0.267767,0.752573
0.377485,0.735891,0.26667,0.752498
0.376314,0.736503,0.265576,0.752422
0.375148,0.737115,0.264488,0.752347
0.373985,0.737728,0.263403,0.752272
0.372826,0.738341,0.262323,0.752197
0.37167,0.738955,0.261248,0.752121
0.370518,0.739569,0.260177,0.752046
0.36937,0.740184,0.25911,0.751971
0.368225,0.740799,0.258048,0.751896
0.367083,0.741415,0.25699,0.751821
0.365946,0.742031,0.255937,0.751746
0.364811,0.742648,0.254887,0.75167
0.36368,0.743265,0.253842,0.751595
0.362553,0.743883,0.252802,0.75152
0.361429,0.744501,0.251765,0.751445
0.360309,0.74512,0.250733,0.75137
0.359192,0.74574,0.249705,0.751295
0.358079,0.74636,0.248682,0.751219
0.356969,0.74698,0.247662,0.751144
0.355862,0.747601,0.246647,0.751069
0.355827,0.747475,0.246622,0.750994
0.355791,0.747349,0.246598,0.750919
0.355756,0.747223,0.246573,0.750844
0.35572,0.747097,0.246548,0.750769
0.355684,0.746971,0.246524,0.750694
0.355649,0.746845,0.246499,0.750619
0.355613,0.746719,0.246474,0.750544
0.355578,0.746593,0.24645,0.750469
0.355542,0.746467,0.246425,0.750394
0.355507,0.746342,0.2464,0.750318
0.355471,0.746216,0.246376,0.750243
0.355436,0.74609,0.246351,0.750168
0.3554,0.745964,0.246326,0.750093
0.355364,0.745838,0.246302,0.750018
0.355329,0.745713,0.246277,0.749943
0.355293,0.745587,0.246253,0.749868
0.355258,0.745461,0.246228,0.749793
0.355222,0.745336,0.246203,0.749718
