energy,productivity,fun,hunger
0.791105,0.713227,0.826527,0.691126
0.791025,0.713153,0.826445,0.691057
0.790946,0.71308,0.826362,0.690988
0.790867,0.713006,0.826279,0.690919
0.790788,0.712932,0.826197,0.69085
0.790709,0.712859,0.826114,0.69078
0.79063,0.712785,0.826032,0.690711
0.790551,0.712711,0.825949,0.690642
0.790472,0.712638,0.825866,0.690573
0.790393,0.712564,0.825784,0.690504
0.790314,0.712491,0.825701,0.690435
0.790235,0.712417,0.825619,0.690366
0.790156,0.712343,0.825536,0.690297
0.790077,0.71227,0.825454,0.690228
0.789998,0.712196,0.825371,0.690159
0.789919,0.712123,0.825288,0.69009
0.78984,0.712049,0.825206,0.690021
0.789761,0.711976,0.825123,0.689952
0.789682,0.711902,0.825041,0.689883
0.789603,0.711828,0.824958,0.689814
0.789524,0.711755,0.824876,0.689745
0.789445,0.711681,0.824793,0.689676
0.789366,0.711608,0.824711,0.689607
0.789287,0.711534,0.824628,0.689538
0.789208,0.711461,0.824546,0.689469
0.789129,0.711387,0.824464,0.6894
0.78905,0.711314,0.824381,0.689331
0.788971,0.71124,0.824299,0.689262
0.788892,0.711167,0.824216,0.689193
0.788814,0.711093,0.824134,0.689124
0.788735,0.71102,0.824051,0.689056
0.788656,0.710947,0.823969,0.688987
0.788577,0.710873,0.823887,0.688918
0.788498,0.7108,0.823804,0.688849
0.788419,0.710726,0.823722,0.68878
0.78834,0.710653,0.823639,0.688711
0.788262,0.710579,0.823557,0.688642
0.788183,0.710506,0.823475,0.688573
0.788104,0.710433,0.823392,0.688504
0.788025,0.710359,0.82331,0.688436
0.787946,0.710286,0.823228,0.688367
0.787868,0.710212,0.823145,0.688298
0.787789,0.710139,0.823063,0.688229
0.78771,0.710066,0.822981,0.68816
0.787631,0.709992,0.822898,0.688091
0.787552,0.709919,0.822816,0.688023
0.787474,0.709846,0.822734,0.687954
0.787395,0.709772,0.822652,0.687885
0.787316,0.709699,0.822569,0.687816
0.787237,0.709626,0.822487,0.687748
0.787159,0.709552,0.822405,0.687679
0.78708,0.709479,0.822323,0.68761
0.787001,0.709406,0.82224,0.687541
0.786923,0.709332,0.822158,0.687472
0.786844,0.709259,0.822076,0.687404
0.786765,0.709186,0.821994,0.687335
0.786687,0.709113,0.821912,0.687266
0.786608,0.709039,0.821829,0.687198
0.786529,0.708966,0.821747,0.687129
0.786451,0.708893,0.821665,0.68706
0.786372,0.70882,0.821583,0.686991
0.786293,0.708746,0.821501,0.686923
0.786215,0.708673,0.821418,0.686854
0.786136,0.7086,0.821336,0.686785
0.786057,0.708527,0.821254,0.686717
0.785979,0.708454,0.821172,0.686648
0.7859,0.70838,0.82109,0.686579
0.785822,0.708307,0.821008,0.686511
0.785743,0.708234,0.820926,0.686442
0.785664,0.708161,0.820844,0.686373
0.785586,0.708088,0.820762,0.686305
0.785507,0.708015,0.820679,0.686236
0.785429,0.707941,0.820597,0.686167
0.78535,0.707868,0.820515,0.686099
0.785272,0.707795,0.820433,0.68603
0.785193,0.707722,0.820351,0.685962
0.785115,0.707649,0.820269,0.685893
0.785036,0.707576,0.820187,0.685824
0.784958,0.707503,0.820105,0.685756
0.784879,0.70743,0.820023,0.685687
0.784801,0.707357,0.819941,0.685619
0.784722,0.707283,0.819859,0.68555
0.784644,0.70721,0.819777,0.685482
0.784565,0.707137,0.819695,0.685413
0.784487,0.707064,0.819613,0.685344
0.784408,0.706991,0.819531,0.685276
0.78433,0.706918,0.819449,0.685207
0.784251,0.706845,0.819367,0.685139
0.784173,0.706772,0.819285,0.68507
0.784095,0.706699,0.819204,0.685002
0.784016,0.706626,0.819122,0.684933
0.783938,0.706553,0.81904,0.684865
0.783859,0.70648,0.818958,0.684796
0.783781,0.706407,0.818876,0.684728
0.783703,0.706334,0.818794,0.684659
0.783624,0.706261,0.818712,0.684591
0.783546,0.706188,0.81863,0.684523
0.783468,0.706115,0.818548,0.684454
0.783389,0.706042,0.818467,0.684386
0.783311,0.705969,0.818385,0.684317
0.783233,0.705896,0.818303,0.684249
0.783154,0.705824,0.818221,0.68418
0.783076,0.705751,0.818139,0.684112
0.782998,0.705678,0.818057,0.684044
0.782919,0.705605,0.817976,0.683975
0.782841,0.705532,0.817894,0.683907
0.782763,0.705459,0.817812,0.683838
0.782684,0.705386,0.81773,0.68377
0.782606,0.705313,0.817648,0.683702
0.782528,0.70524,0.817567,0.683633
0.78245,0.705168,0.817485,0.683565
0.782371,0.705095,0.817403,0.683496
0.782293,0.705022,0.817321,0.683428
0.782215,0.704949,0.81724,0.68336
0.782137,0.704876,0.817158,0.683291
0.782059,0.704803,0.817076,0.683223
0.78198,0.704731,0.816995,0.683155
0.781511,0.704658,0.816913,0.683086
0.781042,0.704585,0.816831,0.683018
0.780574,0.704512,0.816749,0.68295
0.780105,0.704439,0.816668,0.682882
0.779637,0.704367,0.816586,0.682813
0.77917,0.704294,0.816504,0.682745
0.778702,0.704221,0.816423,0.682677
0.778235,0.704148,0.816341,0.682608
0.777768,0.704076,0.81626,0.68254
0.777301,0.704003,0.816178,0.682472
0.776835,0.70393,0.816096,0.682404
0.776369,0.703857,0.816015,0.682335
0.775903,0.703785,0.815933,0.682267
0.775438,0.703712,0.815852,0.682199
0.774973,0.703639,0.81577,0.682131
0.774508,0.703567,0.815688,0.682063
0.774043,0.703494,0.815607,0.681994
0.773579,0.703421,0.815525,0.681926
0.773114,0.703349,0.815444,0.681858
0.772651,0.703276,0.815362,0.68179
0.772187,0.703203,0.815281,0.681722
0.771724,0.703131,0.815199,0.681653
0.771261,0.703058,0.815118,0.681585
0.770798,0.702985,0.815036,0.681517
0.770336,0.702913,0.814955,0.681449
0.769873,0.70284,0.814873,0.681381
0.769412,0.702768,0.814792,0.681313
0.76895,0.702695,0.81471,0.681245
0.768489,0.702622,0.814629,0.681176
0.766107,0.703252,0.811289,0.681108
0.763732,0.703883,0.807963,0.68104
0.761365,0.704514,0.804651,0.680972
0.759005,0.705146,0.801352,0.680904
0.756652,0.705778,0.798067,0.680836
0.754306,0.706411,0.794795,0.680768
0.751968,0.707044,0.791537,0.6807
0.749637,0.707678,0.788292,0.680632
0.747314,0.708312,0.78506,0.680564
0.744997,0.708947,0.781841,0.680496
0.742688,0.709583,0.778636,0.680427
0.740386,0.710219,0.775444,0.680359
0.738091,0.710856,0.772265,0.680291
0.735803,0.711493,0.769099,0.680223
0.733522,0.712131,0.765946,0.680155
0.731249,0.71277,0.762806,0.680087
0.728982,0.713409,0.759679,0.680019
0.726722,0.714049,0.756565,0.679951
0.72447,0.714689,0.753463,0.679883
0.722224,0.71533,0.750374,0.679815
0.719985,0.715971,0.747298,0.679747
0.717754,0.716613,0.744234,0.679679
0.715529,0.717255,0.741183,0.679611
0.713311,0.717898,0.738145,0.679543
0.7111,0.718542,0.735118,0.679476
0.708896,0.719186,0.732105,0.679408
0.706698,0.719831,0.729103,0.67934
0.704508,0.720476,0.726114,0.679272
0.702324,0.721122,0.723138,0.679204
0.700147,0.721769,0.720173,0.679136
0.697977,0.722416,0.717221,0.679068
0.695813,0.723064,0.71428,0.679
0.693656,0.723712,0.711352,0.678932
0.691506,0.724361,0.708436,0.678864
0.689363,0.72501,0.705531,0.678796
0.687226,0.725661,0.702639,0.678728
0.685096,0.726311,0.699759,0.678661
0.682972,0.726962,0.69689,0.678593
0.680855,0.727614,0.694033,0.678525
0.678745,0.728266,0.691188,0.678457
0.676641,0.728919,0.688354,0.678389
0.674544,0.729573,0.685532,0.678321
0.672453,0.730227,0.682722,0.678253
0.670368,0.730882,0.679923,0.678186
0.66829,0.731537,0.677135,0.678118
0.666219,0.732193,0.674359,0.67805
0.664154,0.732849,0.671595,0.677982
0.662095,0.733507,0.668841,0.677914
0.660043,0.734164,0.666099,0.677847
0.657997,0.734822,0.663369,0.677779
0.655957,0.735481,0.660649,0.677711
0.653924,0.736141,0.657941,0.677643
0.651897,0.736801,0.655243,0.677576
0.649876,0.737461,0.652557,0.677508
0.647862,0.738123,0.649882,0.67744
0.645854,0.738784,0.647218,0.677372
0.643852,0.739447,0.644564,0.677305
0.641856,0.74011,0.641922,0.677237
0.639866,0.740773,0.63929,0.677169
0.637883,0.741437,0.63667,0.677101
0.635906,0.742102,0.634059,0.677034
0.633935,0.742768,0.63146,0.676966
0.63197,0.743434,0.628871,0.676898
0.630011,0.7441,0.626293,0.676831
0.628058,0.744767,0.623726,0.676763
0.626111,0.745435,0.621169,0.676695
0.62417,0.746103,0.618622,0.676628
0.622236,0.746772,0.616086,0.67656
0.620307,0.747442,0.61356,0.676492
0.618384,0.748112,0.611045,0.676425
0.618322,0.748035,0.610984,0.676357
0.61826,0.747957,0.610923,0.676289
0.618199,0.74788,0.610862,0.676222
0.618137,0.747803,0.610801,0.676154
0.618075,0.747726,0.610739,0.676086
0.618013,0.747648,0.610678,0.676019
0.617951,0.747571,0.610617,0.675951
0.61789,0.747494,0.610556,0.675884
0.617828,0.747417,0.610495,0.675816
0.617766,0.747339,0.610434,0.675748
0.617704,0.747262,0.610373,0.675681
0.617642,0.747185,0.610312,0.675613
0.617581,0.747108,0.610251,0.675546
0.617519,0.747031,0.61019,0.675478
0.617457,0.746954,0.610129,0.675411
0.617395,0.746876,0.610068,0.675343
0.617334,0.746799,0.610007,0.675276
0.617272,0.746722,0.609946,0.675208
0.61721,0.746645,0.609885,0.675141
0.617149,0.746568,0.609824,0.675073
0.617087,0.746491,0.609763,0.675006
0.617025,0.746414,0.609702,0.674938
0.616963,0.746336,0.609641,0.674871
0.616902,0.746259,0.60958,0.674803
0.61684,0.746182,0.609519,0.674736
0.616778,0.746105,0.609458,0.674668
0.616717,0.746028,0.609397,0.674601
0.616655,0.745951,0.609336,0.674533
0.616593,0.745874,0.609275,0.674466
0.616532,0.745797,0.609214,0.674398
0.61647,0.74572,0.609153,0.674331
0.616408,0.745643,0.609093,0.674263
0.616347,0.745566,0.609032,0.674196
0.616285,0.745489,0.608971,0.674129
0.616223,0.745412,0.60891,0.674061
0.616162,0.745335,0.608849,0.673994
0.6161,0.745258,0.608788,0.673926
0.616039,0.745181,0.608727,0.673859
0.615977,0.745104,0.608666,0.673792
0.615915,0.745027,0.608605,0.673724
0.615854,0.74495,0.608545,0.673657
0.615792,0.744873,0.608484,0.673589
0.615731,0.744796,0.608423,0.673522
0.615669,0.744719,0.608362,0.673455
0.615607,0.744642,0.608301,0.673387
0.615546,0.744565,0.60824,0.67332
0.615484,0.744488,0.60818,0.673253
0.615423,0.744411,0.608119,0.673185
0.615361,0.744334,0.608058,0.673118
0.6153,0.744257,0.607997,0.673051
0.615238,0.744181,0.607936,0.672983
0.615177,0.744104,0.607876,0.672916
0.615115,0.744027,0.607815,0.672849
0.615054,0.74395,0.607754,0.672782
0.614992,0.743873,0.607693,0.672714
0.614931,0.743796,0.607632,0.672647
0.614869,0.743719,0.607572,0.67258
0.614808,0.743643,0.607511,0.672512
0.614746,0.743566,0.60745,0.672445
0.614685,0.743489,0.607389,0.672378
0.614623,0.743412,0.607329,0.672311
0.614562,0.743335,0.607268,0.672244
0.6145,0.743259,0.607207,0.672176
0.614439,0.743182,0.607147,0.672109
0.614377,0.743105,0.607086,0.672042
0.614316,0.743028,0.607025,0.671975
0.614255,0.742951,0.606964,0.671907
0.614193,0.742875,0.606904,0.67184
0.614132,0.742798,0.606843,0.671773
0.61407,0.742721,0.606782,0.671706
0.614009,0.742644,0.606722,0.671639
0.613948,0.742568,0.606661,0.671572
0.613886,0.742491,0.6066,0.671504
0.613825,0.742414,0.60654,0.671437
0.613763,0.742338,0.606479,0.67137
0.613702,0.742261,0.606418,0.671303
0.613641,0.742184,0.606358,0.671236
0.613579,0.742108,0.606297,0.671169
0.613518,0.742031,0.606236,0.671102
0.613457,0.741954,0.606176,0.671035
0.613395,0.741878,0.606115,0.670967
0.613334,0.741801,0.606055,0.6709
0.613273,0.741724,0.605994,0.670833
0.613211,0.741648,0.605933,0.670766
0.61315,0.741571,0.605873,0.670699
0.613089,0.741495,0.605812,0.670632
0.613027,0.741418,0.605752,0.670565
0.612966,0.741341,0.605691,0.670498
0.612905,0.741265,0.60563,0.670431
0.612843,0.741188,0.60557,0.670364
0.612782,0.741112,0.605509,0.670297
0.612721,0.741035,0.605449,0.67023
0.61266,0.740958,0.605388,0.670163
0.612598,0.740882,0.605328,0.670096
0.612537,0.740805,0.605267,0.670029
0.612476,0.740729,0.605207,0.669962
0.612414,0.740652,0.605146,0.669895
0.612353,0.740576,0.605086,0.669828
0.612292,0.740499,0.605025,0.669761
0.612231,0.740423,0.604965,0.669694
0.61217,0.740346,0.604904,0.669627
0.612108,0.74027,0.604844,0.66956
0.612047,0.740193,0.604783,0.669493
0.611986,0.740117,0.604723,0.669426
0.611925,0.74004,0.604662,0.669359
0.611864,0.739964,0.604602,0.669292
0.611802,0.739888,0.604541,0.669225
0.611741,0.739811,0.604481,0.669158
0.61168,0.739735,0.60442,0.669091
0.611619,0.739658,0.60436,0.669024
0.611558,0.739582,0.604299,0.668957
0.611497,0.739505,0.604239,0.668891
0.611435,0.739429,0.604179,0.668824
0.611374,0.739353,0.604118,0.668757
0.611313,0.739276,0.604058,0.66869
0.611252,0.7392,0.603997,0.668623
0.611191,0.739124,0.603937,0.668556
0.61113,0.739047,0.603877,0.668489
0.611069,0.738971,0.603816,0.668422
0.611007,0.738894,0.603756,0.668356
0.610946,0.738818,0.603695,0.668289
0.610885,0.738742,0.603635,0.668222
0.610824,0.738666,0.603575,0.668155
0.610763,0.738589,0.603514,0.668088
0.610702,0.738513,0.603454,0.668021
0.610641,0.738437,0.603394,0.667955
0.61058,0.73836,0.603333,0.667888
0.610519,0.738284,0.603273,0.667821
0.610458,0.738208,0.603213,0.667754
0.610397,0.738132,0.603152,0.667688
0.610336,0.738055,0.603092,0.667621
0.610275,0.737979,0.603032,0.667554
0.610214,0.737903,0.602971,0.667487
0.610153,0.737827,0.602911,0.667421
0.610092,0.73775,0.602851,0.667354
0.610031,0.737674,0.602791,0.667287
0.60997,0.737598,0.60273,0.66722
0.609909,0.737522,0.60267,0.667154
0.609848,0.737445,0.60261,0.667087
0.609787,0.737369,0.602549,0.66702
0.609726,0.737293,0.602489,0.666953
0.609665,0.737217,0.602429,0.666887
0.609604,0.737141,0.602369,0.66682
0.609543,0.737065,0.602308,0.666753
0.609482,0.736989,0.602248,0.666687
0.609421,0.736912,0.602188,0.66662
0.60936,0.736836,0.602128,0.666553
0.609299,0.73676,0.602068,0.666487
0.609238,0.736684,0.602007,0.66642
0.609177,0.736608,0.601947,0.666353
0.609116,0.736532,0.601887,0.666287
0.609055,0.736456,0.601827,0.66622
0.608994,0.73638,0.601767,0.666154
0.608933,0.736304,0.601706,0.666087
0.608873,0.736228,0.601646,0.66602
0.608812,0.736151,0.601586,0.665954
0.608751,0.736075,0.601526,0.665887
0.60869,0.735999,0.601466,0.665821
0.608629,0.735923,0.601406,0.665754
0.608568,0.735847,0.601345,0.665687
0.608507,0.735771,0.601285,0.665621
0.608447,0.735695,0.601225,0.665554
0.608386,0.735619,0.601165,0.665488
0.608325,0.735543,0.601105,0.665421
0.608264,0.735467,0.601045,0.665355
0.608203,0.735391,0.600985,0.665288
0.608142,0.735315,0.600925,0.665222
0.608082,0.735239,0.600865,0.665155
0.608021,0.735163,0.600804,0.665088
0.60796,0.735087,0.600744,0.665022
0.607899,0.735012,0.600684,0.664955
0.607838,0.734936,0.600624,0.664889
0.607778,0.73486,0.600564,0.664823
0.607717,0.734784,0.600504,0.664756
0.607656,0.734708,0.600444,0.66469
0.607595,0.734632,0.600384,0.664623
0.607534,0.734556,0.600324,0.664557
0.607474,0.73448,0.600264,0.66449
0.607413,0.734404,0.600204,0.664424
0.607352,0.734328,0.600144,0.664357
0.607291,0.734253,0.600084,0.664291
0.607231,0.734177,0.600024,0.664224
0.60717,0.734101,0.599964,0.664158
0.607109,0.734025,0.599904,0.664092
0.607049,0.733949,0.599844,0.664025
0.606988,0.733873,0.599784,0.663959
0.606927,0.733798,0.599724,0.663892
0.606867,0.733722,0.599664,0.663826
0.606806,0.733646,0.599604,0.66376
0.606745,0.73357,0.599544,0.663693
0.606684,0.733494,0.599484,0.663627
0.606624,0.733419,0.599424,0.66356
0.606563,0.733343,0.599364,0.663494
0.606502,0.733267,0.599304,0.663428
0.606442,0.733191,0.599244,0.663361
0.606381,0.733116,0.599184,0.663295
0.606321,0.73304,0.599125,0.663229
0.60626,0.732964,0.599065,0.663162
0.606199,0.732888,0.599005,0.663096
0.606139,0.732813,0.598945,0.66303
0.606078,0.732737,0.598885,0.662964
0.606017,0.732661,0.598825,0.662897
0.605957,0.732586,0.598765,0.662831
0.605896,0.73251,0.598705,0.662765
0.605836,0.732434,0.598645,0.662698
0.605775,0.732359,0.598586,0.662632
0.605715,0.732283,0.598526,0.662566
0.605654,0.732207,0.598466,0.6625
0.605593,0.732132,0.598406,0.662433
0.605533,0.732056,0.598346,0.662367
0.605472,0.73198,0.598286,0.662301
0.605412,0.731905,0.598226,0.662235
0.605351,0.731829,0.598167,0.662168
0.605291,0.731754,0.598107,0.662102
0.60523,0.731678,0.598047,0.662036
0.60517,0.731602,0.597987,0.66197
0.605109,0.731527,0.597927,0.661904
0.605049,0.731451,0.597868,0.661837
0.604988,0.731376,0.597808,0.661771
0.604928,0.7313,0.597748,0.661705
0.604867,0.731225,0.597688,0.661639
0.604807,0.731149,0.597629,0.661573
0.604746,0.731073,0.597569,0.661507
0.604686,0.730998,0.597509,0.66144
0.604625,0.730922,0.597449,0.661374
0.604565,0.730847,0.597389,0.661308
0.604504,0.730771,0.59733,0.661242
0.604444,0.730696,0.59727,0.661176
0.604383,0.73062,0.59721,0.66111
0.604323,0.730545,0.597151,0.661044
0.604262,0.730469,0.597091,0.660978
0.604202,0.730394,0.597031,0.660911
0.604142,0.730319,0.596971,0.660845
0.604081,0.730243,0.596912,0.660779
0.604021,0.730168,0.596852,0.660713
0.60396,0.730092,0.596792,0.660647
0.6039,0.730017,0.596733,0.660581
0.60384,0.729941,0.596673,0.660515
0.603779,0.729866,0.596613,0.660449
0.603719,0.729791,0.596554,0.660383
0.603658,0.729715,0.596494,0.660317
0.603598,0.72964,0.596434,0.660251
0.603538,0.729564,0.596375,0.660185
0.603477,0.729489,0.596315,0.660119
0.603417,0.729414,0.596255,0.660053
0.603357,0.729338,0.596196,0.659987
0.603296,0.729263,0.596136,0.659921
0.603236,0.729188,0.596077,0.659855
0.603176,0.729112,0.596017,0.659789
0.603115,0.729037,0.595957,0.659723
0.603055,0.728962,0.595898,0.659657
0.602995,0.728886,0.595838,0.659591
0.602934,0.728811,0.595779,0.659525
0.602874,0.728736,0.595719,0.659459
0.602814,0.72866,0.595659,0.659393
0.602754,0.728585,0.5956,0.659327
0.602693,0.72851,0.59554,0.659261
0.602633,0.728435,0.595481,0.659195
0.602573,0.728359,0.595421,0.659129
0.602513,0.728284,0.595362,0.659063
0.602452,0.728209,0.595302,0.658997
0.602392,0.728134,0.595243,0.658932
0.602332,0.728058,0.595183,0.658866
0.602272,0.727983,0.595124,0.6588
0.602211,0.727908,0.595064,0.658734
0.602151,0.727833,0.595005,0.658668
0.602091,0.727758,0.594945,0.658602
0.602031,0.727683,0.594886,0.658536
0.601971,0.727607,0.594826,0.65847
0.60191,0.727532,0.594767,0.658405
0.60185,0.727457,0.594707,0.658339
0.60179,0.727382,0.594648,0.658273
0.60173,0.727307,0.594588,0.658207
0.60167,0.727232,0.594529,0.658141
0.601609,0.727156,0.594469,0.658075
0.601549,0.727081,0.59441,0.65801
0.601489,0.727006,0.59435,0.657944
0.601429,0.726931,0.594291,0.657878
0.601369,0.726856,0.594232,0.657812
0.601309,0.726781,0.594172,0.657746
0.601249,0.726706,0.594113,0.657681
0.601188,0.726631,0.594053,0.657615
0.601128,0.726556,0.593994,0.657549
0.601068,0.726481,0.593934,0.657483
0.601008,0.726406,0.593875,0.657418
0.600948,0.726331,0.593816,0.657352
0.600888,0.726256,0.593756,0.657286
0.600828,0.72618,0.593697,0.65722
0.600768,0.726105,0.593638,0.657155
0.600708,0.72603,0.593578,0.657089
0.600648,0.725955,0.593519,0.657023
0.600588,0.72588,0.59346,0.656958
0.600527,0.725805,0.5934,0.656892
0.600467,0.72573,0.593341,0.656826
0.600407,0.725656,0.593281,0.656761
0.600347,0.725581,0.593222,0.656695
0.600287,0.725506,0.593163,0.656629
0.600227,0.725431,0.593104,0.656564
0.600167,0.725356,0.593044,0.656498
0.600107,0.725281,0.592985,0.656432
0.600047,0.725206,0.592926,0.656367
0.599987,0.725131,0.592866,0.656301
0.599927,0.725056,0.592807,0.656235
0.599867,0.724981,0.592748,0.65617
0.599807,0.724906,0.592688,0.656104
0.599747,0.724831,0.592629,0.656038
0.599687,0.724756,0.59257,0.655973
0.599627,0.724682,0.592511,0.655907
0.599567,0.724607,0.592451,0.655842
0.599507,0.724532,0.592392,0.655776
0.599447,0.724457,0.592333,0.655711
0.599387,0.724382,0.592274,0.655645
0.599328,0.724307,0.592214,0.655579
0.599268,0.724232,0.592155,0.655514
0.599208,0.724158,0.592096,0.655448
0.599148,0.724083,0.592037,0.655383
0.599088,0.724008,0.591978,0.655317
0.599028,0.723933,0.591918,0.655252
0.598968,0.723858,0.591859,0.655186
0.598908,0.723784,0.5918,0.655121
0.598848,0.723709,0.591741,0.655055
0.598788,0.723634,0.591682,0.65499
0.598728,0.723559,0.591623,0.654924
0.598669,0.723485,0.591563,0.654859
0.598609,0.72341,0.591504,0.654793
0.598549,0.723335,0.591445,0.654728
0.598489,0.72326,0.591386,0.654662
0.598429,0.723186,0.591327,0.654597
0.598369,0.723111,0.591268,0.654531
0.598309,0.723036,0.591209,0.654466
0.59825,0.722962,0.591149,0.6544
0.59819,0.722887,0.59109,0.654335
0.59813,0.722812,0.591031,0.654269
0.59807,0.722738,0.590972,0.654204
0.59801,0.722663,0.590913,0.654139
0.597951,0.722588,0.590854,0.654073
0.597891,0.722514,0.590795,0.654008
0.597831,0.722439,0.590736,0.653942
0.597771,0.722364,0.590677,0.653877
0.597711,0.72229,0.590618,0.653812
0.597652,0.722215,0.590559,0.653746
0.597592,0.72214,0.590499,0.653681
0.597532,0.722066,0.59044,0.653615
0.597472,0.721991,0.590381,0.65355
0.597413,0.721917,0.590322,0.653485
