energy,productivity,fun,hunger
0.501894,0.981499,0.895714,0.895265
0.501844,0.98139,0.922493,0.895175
0.501543,0.981282,0.922401,0.895085
0.501242,0.981173,0.922309,0.894996
0.500941,0.981064,0.922216,0.894906
0.50064,0.980955,0.922124,0.894817
0.50034,0.980846,0.922032,0.894727
0.50004,0.980737,0.92194,0.894638
0.49974,0.980629,0.921847,0.894549
0.49944,0.98052,0.921755,0.894459
0.49914,0.980411,0.921663,0.89437
0.498841,0.980302,0.921571,0.89428
0.498542,0.980193,0.921479,0.894191
0.498243,0.980085,0.921387,0.894101
0.497944,0.979976,0.921295,0.894012
0.497645,0.979867,0.921202,0.893923
0.497346,0.979759,0.92111,0.893833
0.497048,0.97965,0.921018,0.893744
0.49675,0.979541,0.920926,0.893654
0.496452,0.979433,0.920834,0.893565
0.496154,0.979324,0.920742,0.893476
0.495856,0.979215,0.92065,0.893386
0.495559,0.979107,0.920558,0.893297
0.495261,0.978998,0.920466,0.893208
0.494964,0.978889,0.920374,0.893118
0.494667,0.978781,0.920282,0.893029
0.494371,0.978672,0.92019,0.89294
0.494321,0.978564,0.920098,0.89285
0.494272,0.978455,0.947606,0.892761
0.493975,0.978346,0.947511,0.892672
0.493679,0.978238,0.947416,0.892583
0.493383,0.978129,0.947321,0.892493
0.493087,0.978021,0.947227,0.892404
0.492791,0.977912,0.947132,0.892315
0.492495,0.977804,0.947037,0.892226
0.4922,0.977695,0.946943,0.892136
0.491904,0.977587,0.946848,0.892047
0.491609,0.977478,0.946753,0.891958
0.491314,0.97737,0.946659,0.891869
0.49102,0.977262,0.946564,0.89178
0.490725,0.977153,0.946469,0.89169
0.490431,0.977045,0.946375,0.891601
0.490136,0.976936,0.94628,0.891512
0.489842,0.976828,0.946185,0.891423
0.489548,0.97672,0.946091,0.891334
0.489255,0.976611,0.945996,0.891245
0.488961,0.976503,0.945901,0.891156
0.488668,0.976395,0.945807,0.891066
0.488375,0.976286,0.945712,0.890977
0.488082,0.976178,0.945618,0.890888
0.487789,0.97607,0.945523,0.890799
0.487496,0.975961,0.945429,0.89071
0.487204,0.975853,0.945334,0.890621
0.486911,0.975745,0.94524,0.890532
0.486619,0.975636,0.945145,0.890443
0.486327,0.975528,0.94505,0.890354
0.486035,0.97542,0.944956,0.890265
0.485744,0.975312,0.944861,0.890176
0.485452,0.975204,0.944767,0.890087
0.485161,0.975095,0.944673,0.889998
0.48487,0.974987,0.944578,0.889909
0.484579,0.974879,0.944484,0.88982
0.484289,0.974771,0.944389,0.889731
0.483998,0.974663,0.944295,0.889642
0.483708,0.974555,0.9442,0.889553
0.483417,0.974446,0.944106,0.889464
0.483127,0.974338,0.944011,0.889375
0.482838,0.97423,0.943917,0.889286
0.482548,0.974122,0.943823,0.889197
0.482258,0.974014,0.943728,0.889108
0.481969,0.973906,0.943634,0.889019
0.48168,0.973798,0.94354,0.88893
0.481391,0.97369,0.943445,0.888841
0.481102,0.973582,0.943351,0.888753
0.480813,0.973474,0.943257,0.888664
0.480765,0.973366,0.943162,0.888575
0.480717,0.973258,0.97136,0.888486
0.480429,0.97315,0.971263,0.888397
0.480141,0.973042,0.971166,0.888308
0.479853,0.972934,0.971069,0.888219
0.479565,0.972826,0.970971,0.888131
0.479277,0.972718,0.970874,0.888042
0.478989,0.97261,0.970777,0.887953
0.478702,0.972502,0.97068,0.887864
0.478415,0.972394,0.970583,0.887775
0.478128,0.972287,0.970486,0.887687
0.477841,0.972179,0.970389,0.887598
0.477554,0.972071,0.970292,0.887509
0.477268,0.971963,0.970195,0.88742
0.476981,0.971855,0.970098,0.887332
0.476695,0.971747,0.970001,0.887243
0.476409,0.97164,0.969904,0.887154
0.476123,0.971532,0.969807,0.887065
0.475838,0.971424,0.96971,0.886977
0.475552,0.971316,0.969613,0.886888
0.475267,0.971208,0.969516,0.886799
0.474982,0.971101,0.969419,0.886711
0.474697,0.970993,0.969322,0.886622
0.474412,0.970885,0.969225,0.886533
0.474128,0.970778,0.969128,0.886445
0.473843,0.97067,0.969031,0.886356
0.473559,0.970562,0.968934,0.886267
0.473275,0.970454,0.968838,0.886179
0.472991,0.970347,0.968741,0.88609
0.472943,0.970239,0.968644,0.886002
0.472896,0.970131,0.997603,0.885913
0.472612,0.970024,0.997504,0.885824
0.472329,0.969916,0.997404,0.885736
0.472046,0.969809,0.997304,0.885647
0.471762,0.969701,0.997204,0.885559
0.471479,0.969593,0.997105,0.88547
0.471196,0.969486,0.997005,0.885382
0.470914,0.969378,0.996905,0.885293
0.470631,0.969271,0.996806,0.885204
0.470349,0.969163,0.996706,0.885116
0.470067,0.969056,0.996606,0.885027
0.469785,0.968948,0.996506,0.884939
0.469503,0.968841,0.996407,0.88485
0.469221,0.968733,0.996307,0.884762
0.46894,0.968626,0.996208,0.884673
0.468658,0.968518,0.996108,0.884585
0.468611,0.968411,0.996008,0.884497
0.468565,0.968303,1,0.884408
0.468283,0.968196,0.9999,0.88432
0.468002,0.968089,0.9998,0.884231
0.467722,0.967981,0.9997,0.884143
0.467441,0.967874,0.9996,0.884054
0.467161,0.967766,0.9995,0.883966
0.46688,0.967659,0.9994,0.883878
0.4666,0.967552,0.9993,0.883789
0.46632,0.967444,0.9992,0.883701
0.466041,0.967337,0.9991,0.883612
0.465761,0.96723,0.999,0.883524
0.465482,0.967122,0.998901,0.883436
0.465202,0.967015,0.998801,0.883347
0.464923,0.966908,0.998701,0.883259
0.464644,0.9668,0.998601,0.883171
0.464365,0.966693,0.998501,0.883082
0.464087,0.966586,0.998401,0.882994
0.463808,0.966479,0.998301,0.882906
0.46353,0.966372,0.998202,0.882818
0.463252,0.966264,0.998102,0.882729
0.462974,0.966157,0.998002,0.882641
0.462696,0.96605,0.997902,0.882553
0.462419,0.965943,0.997802,0.882464
0.462141,0.965836,0.997703,0.882376
0.461864,0.965728,0.997603,0.882288
0.461587,0.965621,0.997503,0.8822
0.46131,0.965514,0.997403,0.882112
0.461033,0.965407,0.997304,0.882023
0.460757,0.9653,0.997204,0.881935
0.46048,0.965193,0.997104,0.881847
0.460204,0.965086,0.997004,0.881759
0.459928,0.964979,0.996905,0.881671
0.459652,0.964872,0.996805,0.881582
0.459376,0.964765,0.996705,0.881494
0.459101,0.964658,0.996606,0.881406
0.459055,0.964551,0.996506,0.881318
0.459009,0.964443,1,0.88123
0.458733,0.964336,0.9999,0.881142
0.458458,0.96423,0.9998,0.881054
0.458183,0.964123,0.9997,0.880965
0.457908,0.964016,0.9996,0.880877
0.457634,0.963909,0.9995,0.880789
0.457359,0.963802,0.9994,0.880701
0.457085,0.963695,0.9993,0.880613
0.45681,0.963588,0.9992,0.880525
0.456536,0.963481,0.9991,0.880437
0.456262,0.963374,0.999,0.880349
0.455989,0.963267,0.998901,0.880261
0.455715,0.96316,0.998801,0.880173
0.455442,0.963053,0.998701,0.880085
0.455168,0.962947,0.998601,0.879997
0.454895,0.96284,0.998501,0.879909
0.454622,0.962733,0.998401,0.879821
0.45435,0.962626,0.998301,0.879733
0.454077,0.962519,0.998202,0.879645
0.453805,0.962413,0.998102,0.879557
0.453532,0.962306,0.998002,0.879469
0.45326,0.962199,0.997902,0.879381
0.453215,0.962092,0.997802,0.879293
0.45317,0.961986,1,0.879205
0.452898,0.961879,0.9999,0.879117
0.452626,0.961772,0.9998,0.879029
0.452355,0.961665,0.9997,0.878941
0.452083,0.961559,0.9996,0.878854
0.451812,0.961452,0.9995,0.878766
0.451541,0.961345,0.9994,0.878678
0.45127,0.961239,0.9993,0.87859
0.450999,0.961132,0.9992,0.878502
0.450729,0.961025,0.9991,0.878414
0.450458,0.960919,0.999,0.878326
0.450188,0.960812,0.998901,0.878239
0.449918,0.960706,0.998801,0.878151
0.449648,0.960599,0.998701,0.878063
0.449603,0.960492,0.998601,0.877975
0.449558,0.960386,1,0.877887
0.449288,0.960279,0.9999,0.8778
0.449019,0.960173,0.9998,0.877712
0.448749,0.960066,0.9997,0.877624
0.44848,0.95996,0.9996,0.877536
0.448211,0.959853,0.9995,0.877448
0.447942,0.959747,0.9994,0.877361
0.447673,0.95964,0.9993,0.877273
0.447405,0.959534,0.9992,0.877185
0.447136,0.959427,0.9991,0.877098
0.446868,0.959321,0.999,0.87701
0.4466,0.959214,0.998901,0.876922
0.446332,0.959108,0.998801,0.876834
0.446064,0.959002,0.998701,0.876747
0.445797,0.958895,0.998601,0.876659
0.445529,0.958789,0.998501,0.876571
0.445262,0.958682,0.998401,0.876484
0.444995,0.958576,0.998301,0.876396
0.444728,0.95847,0.998202,0.876308
0.444461,0.958363,0.998102,0.876221
0.444417,0.958257,0.998002,0.876133
0.444372,0.958151,1,0.876046
0.444106,0.958044,0.9999,0.875958
0.443839,0.957938,0.9998,0.87587
0.443573,0.957832,0.9997,0.875783
0.443307,0.957726,0.9996,0.875695
0.443041,0.957619,0.9995,0.875608
0.442775,0.957513,0.9994,0.87552
0.442509,0.957407,0.9993,0.875433
0.442244,0.957301,0.9992,0.875345
0.441979,0.957195,0.9991,0.875257
0.441713,0.957088,0.999,0.87517
0.441448,0.956982,0.998901,0.875082
0.441184,0.956876,0.998801,0.874995
0.440919,0.95677,0.998701,0.874907
0.440654,0.956664,0.998601,0.87482
0.44039,0.956558,0.998501,0.874732
0.440126,0.956451,0.998401,0.874645
0.439862,0.956345,0.998301,0.874558
0.439598,0.956239,0.998202,0.87447
0.439334,0.956133,0.998102,0.874383
0.43907,0.956027,0.998002,0.874295
0.438807,0.955921,0.997902,0.874208
0.438544,0.955815,0.997802,0.87412
0.438281,0.955709,0.997703,0.874033
0.438018,0.955603,0.997603,0.873946
0.437755,0.955497,0.997503,0.873858
0.437492,0.955391,0.997403,0.873771
0.43723,0.955285,0.997304,0.873683
0.436968,0.955179,0.997204,0.873596
0.436705,0.955073,0.997104,0.873509
0.436443,0.954967,0.997004,0.873421
0.436181,0.954861,0.996905,0.873334
0.43592,0.954755,0.996805,0.873247
0.435658,0.954649,0.996705,0.873159
0.435397,0.954543,0.996606,0.873072
0.435136,0.954437,0.996506,0.872985
0.434875,0.954331,0.996406,0.872897
0.434614,0.954225,0.996307,0.87281
0.434353,0.95412,0.996207,0.872723
0.434092,0.954014,0.996107,0.872636
0.433832,0.953908,0.996008,0.872548
0.433572,0.953802,0.995908,0.872461
0.433312,0.953696,0.995809,0.872374
0.433052,0.95359,0.995709,0.872287
0.432792,0.953485,0.995609,0.872199
0.432532,0.953379,0.99551,0.872112
0.432273,0.953273,0.99541,0.872025
0.432013,0.953167,0.995311,0.871938
0.431754,0.953062,0.995211,0.87185
0.431495,0.952956,0.995112,0.871763
0.431236,0.95285,0.995012,0.871676
0.430977,0.952744,0.994913,0.871589
0.430719,0.952639,0.994813,0.871502
0.430461,0.952533,0.994714,0.871415
0.430417,0.952427,0.994614,0.871327
0.430374,0.952322,1,0.87124
0.430116,0.952216,0.9999,0.871153
0.429858,0.95211,0.9998,0.871066
0.4296,0.952005,0.9997,0.870979
0.429343,0.951899,0.9996,0.870892
0.429085,0.951794,0.9995,0.870805
0.428828,0.951688,0.9994,0.870718
0.42857,0.951582,0.9993,0.870631
0.428313,0.951477,0.9992,0.870544
0.428056,0.951371,0.9991,0.870457
0.427799,0.951266,0.999,0.870369
0.427543,0.95116,0.998901,0.870282
0.427286,0.951055,0.998801,0.870195
0.42703,0.950949,0.998701,0.870108
0.426774,0.950844,0.998601,0.870021
0.426518,0.950738,0.998501,0.869934
0.426262,0.950633,0.998401,0.869847
0.426006,0.950527,0.998301,0.86976
0.42575,0.950422,0.998202,0.869673
0.425495,0.950316,0.998102,0.869586
0.42524,0.950211,0.998002,0.8695
0.424985,0.950105,0.997902,0.869413
0.42473,0.95,0.997802,0.869326
0.424475,0.949895,0.997703,0.869239
0.42422,0.949789,0.997603,0.869152
0.423966,0.949684,0.997503,0.869065
0.423711,0.949579,0.997403,0.868978
0.423457,0.949473,0.997304,0.868891
0.423203,0.949368,0.997204,0.868804
0.422949,0.949262,0.997104,0.868717
0.422695,0.949157,0.997004,0.86863
0.422442,0.949052,0.996905,0.868544
0.422188,0.948947,0.996805,0.868457
0.421935,0.948841,0.996705,0.86837
0.421682,0.948736,0.996606,0.868283
0.421429,0.948631,0.996506,0.868196
0.421176,0.948526,0.996406,0.868109
0.420923,0.94842,0.996307,0.868023
0.420671,0.948315,0.996207,0.867936
0.420418,0.94821,0.996107,0.867849
0.420166,0.948105,0.996008,0.867762
0.419914,0.947999,0.995908,0.867675
0.419662,0.947894,0.995809,0.867589
0.41941,0.947789,0.995709,0.867502
0.419159,0.947684,0.995609,0.867415
0.418907,0.947579,0.99551,0.867328
0.418656,0.947474,0.99541,0.867242
0.418405,0.947369,0.995311,0.867155
0.418154,0.947263,0.995211,0.867068
0.417903,0.947158,0.995112,0.866981
0.417652,0.947053,0.995012,0.866895
0.417402,0.946948,0.994913,0.866808
0.417151,0.946843,0.994813,0.866721
0.416901,0.946738,0.994714,0.866635
0.416651,0.946633,0.994614,0.866548
0.416609,0.946528,0.994515,0.866461
0.416568,0.946423,1,0.866375
0.416318,0.946318,0.9999,0.866288
0.416068,0.946213,0.9998,0.866202
0.415818,0.946108,0.9997,0.866115
0.415569,0.946003,0.9996,0.866028
0.415319,0.945898,0.9995,0.865942
0.41507,0.945793,0.9994,0.865855
0.414821,0.945688,0.9993,0.865769
0.414572,0.945583,0.9992,0.865682
0.414324,0.945478,0.9991,0.865595
0.414075,0.945374,0.999,0.865509
0.413827,0.945269,0.998901,0.865422
0.413578,0.945164,0.998801,0.865336
0.41333,0.945059,0.998701,0.865249
0.413082,0.944954,0.998601,0.865163
0.412834,0.944849,0.998501,0.865076
0.412587,0.944744,0.998401,0.86499
0.412339,0.94464,0.998301,0.864903
0.412092,0.944535,0.998202,0.864817
0.411845,0.94443,0.998102,0.86473
0.411598,0.944325,0.998002,0.864644
0.411351,0.944221,0.997902,0.864557
0.411104,0.944116,0.997802,0.864471
0.410857,0.944011,0.997703,0.864384
0.410611,0.943906,0.997603,0.864298
0.410364,0.943802,0.997503,0.864211
0.410118,0.943697,0.997403,0.864125
0.409872,0.943592,0.997304,0.864039
0.409626,0.943487,0.997204,0.863952
0.40938,0.943383,0.997104,0.863866
0.409135,0.943278,0.997004,0.863779
0.408889,0.943173,0.996905,0.863693
0.408644,0.943069,0.996805,0.863607
0.408399,0.942964,0.996705,0.86352
0.408154,0.94286,0.996606,0.863434
0.407909,0.942755,0.996506,0.863348
0.407664,0.94265,0.996406,0.863261
0.40742,0.942546,0.996307,0.863175
0.407175,0.942441,0.996207,0.863089
0.406931,0.942337,0.996107,0.863002
0.406687,0.942232,0.996008,0.862916
0.406443,0.942128,0.995908,0.86283
0.406199,0.942023,0.995809,0.862743
0.405955,0.941919,0.995709,0.862657
0.405712,0.941814,0.995609,0.862571
0.405468,0.94171,0.99551,0.862485
0.405225,0.941605,0.99541,0.862398
0.404982,0.941501,0.995311,0.862312
0.404739,0.941396,0.995211,0.862226
0.404496,0.941292,0.995112,0.86214
0.404253,0.941187,0.995012,0.862054
0.404011,0.941083,0.994913,0.861967
0.403769,0.940978,0.994813,0.861881
0.403526,0.940874,0.994714,0.861795
0.403284,0.94077,0.994614,0.861709
0.403042,0.940665,0.994515,0.861623
0.4028,0.940561,0.994415,0.861536
0.402559,0.940457,0.994316,0.86145
0.402317,0.940352,0.994216,0.861364
0.402076,0.940248,0.994117,0.861278
0.401835,0.940144,0.994018,0.861192
0.401594,0.940039,0.993918,0.861106
0.401353,0.939935,0.993819,0.86102
0.401112,0.939831,0.993719,0.860934
0.400871,0.939727,0.99362,0.860847
0.400631,0.939622,0.993521,0.860761
0.40039,0.939518,0.993421,0.860675
0.40015,0.939414,0.993322,0.860589
0.39991,0.93931,0.993223,0.860503
0.39967,0.939205,0.993123,0.860417
0.39943,0.939101,0.993024,0.860331
0.399191,0.938997,0.992925,0.860245
0.398951,0.938893,0.992826,0.860159
0.398712,0.938789,0.992726,0.860073
0.398473,0.938684,0.992627,0.859987
0.398234,0.93858,0.992528,0.859901
0.398194,0.938476,0.992428,0.859815
0.398154,0.938372,0.992329,0.859729
0.398114,0.938268,0.99223,0.859643
0.398074,0.938164,0.992131,0.859557
0.397915,0.938998,0.991635,0.859471
0.397756,0.939833,0.991139,0.859385
0.397597,0.940668,0.990643,0.859299
0.397438,0.941504,0.990148,0.859213
0.397279,0.942341,0.989653,0.859127
0.39712,0.943179,0.989158,0.859041
0.396961,0.944017,0.988664,0.858956
0.396802,0.944856,0.988169,0.85887
0.396644,0.945696,0.987675,0.858784
0.396485,0.946537,0.987182,0.858698
0.396326,0.947378,0.986688,0.858612
0.396168,0.948221,0.986195,0.858526
0.396009,0.949064,0.985702,0.85844
0.395851,0.949907,0.985209,0.858354
0.395693,0.950752,0.984716,0.858269
0.395534,0.951597,0.984224,0.858183
0.395376,0.952443,0.983732,0.858097
0.395218,0.953289,0.98324,0.858011
0.39506,0.954137,0.982749,0.857925
0.394902,0.954985,0.982257,0.85784
0.394744,0.955834,0.981766,0.857754
0.394586,0.956684,0.981275,0.857668
0.394428,0.957534,0.980785,0.857582
0.394271,0.958385,0.980294,0.857496
0.394113,0.959237,0.979804,0.857411
0.393955,0.96009,0.979314,0.857325
0.393798,0.960943,0.978825,0.857239
0.39364,0.961798,0.978335,0.857154
0.393483,0.962653,0.977846,0.857068
0.393325,0.963508,0.977357,0.856982
0.393168,0.964365,0.976869,0.856896
0.393011,0.965222,0.97638,0.856811
0.392854,0.96608,0.975892,0.856725
0.392697,0.966939,0.975404,0.856639
0.392539,0.967798,0.974917,0.856554
0.392382,0.968659,0.974429,0.856468
0.392225,0.96952,0.973942,0.856382
0.392069,0.970382,0.973455,0.856297
0.391912,0.971244,0.972968,0.856211
0.391755,0.972108,0.972482,0.856126
0.391598,0.972972,0.971996,0.85604
0.391442,0.973837,0.97151,0.855954
0.391285,0.974702,0.971024,0.855869
0.391129,0.975569,0.970539,0.855783
0.390972,0.976436,0.970053,0.855698
0.390816,0.977304,0.969568,0.855612
0.39066,0.978173,0.969084,0.855526
0.390503,0.979042,0.968599,0.855441
0.390347,0.979913,0.968115,0.855355
0.390191,0.980784,0.967631,0.85527
0.390035,0.981656,0.967147,0.855184
0.389879,0.982528,0.966664,0.855099
0.389723,0.983402,0.96618,0.855013
0.389567,0.984276,0.965697,0.854928
0.389411,0.985151,0.965214,0.854842
0.389256,0.986027,0.964732,0.854757
0.3891,0.986903,0.964249,0.854671
0.388944,0.987781,0.963767,0.854586
0.388789,0.988659,0.963286,0.8545
0.388633,0.989537,0.962804,0.854415
0.388478,0.990417,0.962323,0.854329
0.388322,0.991298,0.961841,0.854244
0.388167,0.992179,0.961361,0.854159
0.388012,0.993061,0.96088,0.854073
0.387857,0.993944,0.9604,0.853988
0.387701,0.994827,0.959919,0.853902
0.387546,0.995711,0.959439,0.853817
0.387391,0.996597,0.95896,0.853732
0.387236,0.997482,0.95848,0.853646
0.387081,0.998369,0.958001,0.853561
0.386927,0.999257,0.957522,0.853476
0.386772,1,0.957043,0.85339
0.386617,1,0.956565,0.853305
0.386463,1,0.956087,0.853219
0.386308,1,0.955609,0.853134
0.386154,1,0.955131,0.853049
0.385999,1,0.954653,0.852964
0.385845,1,0.954176,0.852878
0.38569,1,0.953699,0.852793
0.385536,1,0.953222,0.852708
0.385382,1,0.952746,0.852622
0.385228,1,0.952269,0.852537
0.385074,1,0.951793,0.852452
0.38492,1,0.951317,0.852367
0.384766,1,0.950842,0.852281
0.384612,1,0.950366,0.852196
0.384458,1,0.949891,0.852111
0.384304,1,0.949416,0.852026
0.38415,1,0.948942,0.851941
0.383997,1,0.948467,0.851855
0.383843,1,0.947993,0.85177
0.38369,1,0.947519,0.851685
0.383536,1,0.947045,0.8516
0.383383,1,0.946572,0.851515
0.383229,1,0.946099,0.85143
0.383076,1,0.945626,0.851344
0.382923,1,0.945153,0.851259
0.38277,1,0.94468,0.851174
0.382617,1,0.944208,0.851089
0.382464,1,0.943736,0.851004
0.382311,1,0.943264,0.850919
0.382158,1,0.942792,0.850834
0.382005,1,0.942321,0.850749
0.381852,1,0.94185,0.850664
0.381699,1,0.941379,0.850578
0.381547,1,0.940908,0.850493
0.381394,1,0.940438,0.850408
0.381242,1,0.939968,0.850323
0.381089,1,0.939498,0.850238
0.380937,1,0.939028,0.850153
0.380784,1,0.938559,0.850068
0.380632,1,0.93809,0.849983
0.38048,1,0.93762,0.849898
0.380328,1,0.937152,0.849813
0.380176,1,0.936683,0.849728
0.380023,1,0.936215,0.849643
0.379871,1,0.935747,0.849558
0.37972,1,0.935279,0.849473
0.379568,1,0.934811,0.849388
0.379416,1,0.934344,0.849303
0.379264,1,0.933877,0.849219
0.379112,1,0.93341,0.849134
0.378961,1,0.932943,0.849049
0.378809,1,0.932477,0.848964
0.378658,1,0.932011,0.848879
0.378506,1,0.931545,0.848794
0.378355,1,0.931079,0.848709
0.378203,1,0.930613,0.848624
0.378052,1,0.930148,0.848539
0.377901,1,0.929683,0.848455
0.37775,1,0.929218,0.84837
0.377599,1,0.928754,0.848285
0.377448,1,0.928289,0.8482
0.377297,1,0.927825,0.848115
0.377146,1,0.927361,0.84803
0.376995,1,0.926898,0.847946
0.376844,1,0.926434,0.847861
0.376694,1,0.925971,0.847776
0.376543,1,0.925508,0.847691
0.376392,1,0.925046,0.847607
0.376242,1,0.924583,0.847522
0.376091,1,0.924121,0.847437
0.375941,1,0.923659,0.847352
0.37579,1,0.923197,0.847268
0.37564,1,0.922735,0.847183
0.37549,1,0.922274,0.847098
0.37534,1,0.921813,0.847013
0.37519,1,0.921352,0.846929
0.375039,1,0.920891,0.846844
0.374889,1,0.920431,0.846759
0.37474,1,0.919971,0.846675
0.37459,1,0.919511,0.84659
0.37444,1,0.919051,0.846505
0.37429,1,0.918592,0.846421
0.37414,1,0.918132,0.846336
0.373991,1,0.917673,0.846251
0.373841,1,0.917215,0.846167
0.373692,1,0.916756,0.846082
0.373542,1,0.916298,0.845997
0.373393,1,0.91584,0.845913
0.373243,1,0.915382,0.845828
0.373094,1,0.914924,0.845744
0.372945,1,0.914467,0.845659
0.372796,1,0.914009,0.845575
0.372647,1,0.913553,0.84549
0.372498,1,0.913096,0.845405
0.372349,1,0.912639,0.845321
0.3722,1,0.912183,0.845236
0.372051,1,0.911727,0.845152
0.371902,1,0.911271,0.845067
0.371753,1,0.910815,0.844983
0.371605,1,0.91036,0.844898
0.371456,1,0.909905,0.844814
0.371307,1,0.90945,0.844729
0.371159,1,0.908995,0.844645
0.37101,1,0.908541,0.84456
0.370862,1,0.908087,0.844476
0.370714,1,0.907633,0.844392
0.370565,1,0.907179,0.844307
