energy,productivity,fun,hunger
0.750008,0.840998,0.842227,0.790297
0.749933,0.840886,0.842142,0.790218
0.749483,0.840774,0.842058,0.790139
0.749033,0.840663,0.841974,0.79006
0.748584,0.840551,0.84189,0.789981
0.748135,0.840439,0.841805,0.789902
0.747686,0.840328,0.841721,0.789823
0.747237,0.840216,0.841637,0.789744
0.746789,0.840105,0.841553,0.789665
0.746341,0.839993,0.841469,0.789586
0.745893,0.839881,0.841385,0.789507
0.745446,0.83977,0.841301,0.789428
0.744998,0.839658,0.841216,0.789349
0.744551,0.839547,0.841132,0.78927
0.744105,0.839435,0.841048,0.789191
0.743658,0.839324,0.840964,0.789112
0.743212,0.839212,0.84088,0.789033
0.742766,0.839101,0.840796,0.788954
0.742321,0.83899,0.840712,0.788875
0.741875,0.838878,0.840628,0.788796
0.74143,0.838767,0.840544,0.788718
0.740985,0.838655,0.84046,0.788639
0.740541,0.838544,0.840376,0.78856
0.740096,0.838433,0.840292,0.788481
0.739652,0.838321,0.840207,0.788402
0.739209,0.83821,0.840123,0.788323
0.738765,0.838099,0.840039,0.788244
0.738322,0.837987,0.839955,0.788166
0.737879,0.837876,0.839871,0.788087
0.737436,0.837765,0.839787,0.788008
0.736994,0.837653,0.839704,0.787929
0.736552,0.837542,0.83962,0.78785
0.73611,0.837431,0.839536,0.787772
0.735668,0.83732,0.839452,0.787693
0.735227,0.837208,0.839368,0.787614
0.734786,0.837097,0.839284,0.787535
0.734345,0.836986,0.8392,0.787457
0.733904,0.836875,0.839116,0.787378
0.733464,0.836764,0.839032,0.787299
0.733024,0.836653,0.838948,0.78722
0.732584,0.836542,0.838864,0.787142
0.732145,0.83643,0.83878,0.787063
0.731705,0.836319,0.838696,0.786984
0.731266,0.836208,0.838613,0.786905
0.730828,0.836097,0.838529,0.786827
0.730389,0.835986,0.838445,0.786748
0.729951,0.835875,0.838361,0.786669
0.729878,0.835764,0.838277,0.786591
0.729805,0.835653,0.838193,0.786512
0.729732,0.835542,0.838109,0.786433
0.729659,0.835431,0.838026,0.786355
0.729586,0.83532,0.837942,0.786276
0.729513,0.835209,0.837858,0.786198
0.72944,0.835098,0.837774,0.786119
0.729367,0.834987,0.837691,0.78604
0.729294,0.834877,0.837607,0.785962
0.729221,0.834766,0.837523,0.785883
0.729149,0.834655,0.837439,0.785805
0.729076,0.834544,0.837356,0.785726
0.729003,0.834433,0.837272,0.785647
0.72893,0.834322,0.837188,0.785569
0.728857,0.834211,0.837104,0.78549
0.728784,0.834101,0.837021,0.785412
0.728711,0.83399,0.836937,0.785333
0.728638,0.833879,0.836853,0.785255
0.728565,0.833768,0.83677,0.785176
0.728493,0.833658,0.836686,0.785098
0.72842,0.833547,0.836602,0.785019
0.728347,0.833436,0.836519,0.784941
0.728274,0.833326,0.836435,0.784862
0.728201,0.833215,0.836351,0.784784
0.728128,0.833104,0.836268,0.784705
0.728056,0.832994,0.836184,0.784627
0.727983,0.832883,0.8361,0.784548
0.72791,0.832772,0.836017,0.78447
0.727837,0.832662,0.835933,0.784391
0.727764,0.832551,0.83585,0.784313
0.727692,0.832441,0.835766,0.784234
0.727619,0.83233,0.835682,0.784156
0.727546,0.832219,0.835599,0.784078
0.727473,0.832109,0.835515,0.783999
0.727401,0.831998,0.835432,0.783921
0.727328,0.831888,0.835348,0.783842
0.727255,0.831777,0.835265,0.783764
0.727182,0.831667,0.835181,0.783686
0.72711,0.831557,0.835098,0.783607
0.727037,0.831446,0.835014,0.783529
0.726964,0.831336,0.834931,0.783451
0.726892,0.831225,0.834847,0.783372
0.726819,0.831115,0.834764,0.783294
0.726746,0.831004,0.83468,0.783216
0.726673,0.830894,0.834597,0.783137
0.726601,0.830784,0.834513,0.783059
0.726528,0.830673,0.83443,0.782981
0.726456,0.830563,0.834346,0.782902
0.726383,0.830453,0.834263,0.782824
0.72631,0.830342,0.834179,0.782746
0.726238,0.830232,0.834096,0.782667
0.726165,0.830122,0.834013,0.782589
0.726092,0.830012,0.833929,0.782511
0.72602,0.829901,0.833846,0.782433
0.725947,0.829791,0.833762,0.782354
0.725875,0.829681,0.833679,0.782276
0.725802,0.829571,0.833596,0.782198
0.725729,0.829461,0.833512,0.78212
0.725657,0.829351,0.833429,0.782042
0.725584,0.82924,0.833346,0.781963
0.725512,0.82913,0.833262,0.781885
0.725439,0.82902,0.833179,0.781807
0.725367,0.82891,0.833096,0.781729
0.725294,0.8288,0.833012,0.781651
0.725222,0.82869,0.832929,0.781572
0.725149,0.82858,0.832846,0.781494
0.725076,0.82847,0.832762,0.781416
0.725004,0.82836,0.832679,0.781338
0.724931,0.82825,0.832596,0.78126
0.724859,0.82814,0.832513,0.781182
0.724787,0.82803,0.832429,0.781104
0.724714,0.82792,0.832346,0.781025
0.724642,0.82781,0.832263,0.780947
0.724569,0.8277,0.83218,0.780869
0.724497,0.82759,0.832096,0.780791
0.724424,0.82748,0.832013,0.780713
0.724352,0.82737,0.83193,0.780635
0.724279,0.82726,0.831847,0.780557
0.724207,0.82715,0.831764,0.780479
0.724134,0.82704,0.831681,0.780401
0.724062,0.826931,0.831597,0.780323
0.72399,0.826821,0.831514,0.780245
0.723917,0.826711,0.831431,0.780167
0.723845,0.826601,0.831348,0.780089
0.723772,0.826491,0.831265,0.780011
0.7237,0.826382,0.831182,0.779933
0.723628,0.826272,0.831099,0.779855
0.723555,0.826162,0.831015,0.779777
0.723483,0.826052,0.830932,0.779699
0.723411,0.825943,0.830849,0.779621
0.723338,0.825833,0.830766,0.779543
0.723266,0.825723,0.830683,0.779465
0.723194,0.825614,0.8306,0.779387
0.723121,0.825504,0.830517,0.779309
0.723049,0.825394,0.830434,0.779231
0.722977,0.825285,0.830351,0.779153
0.722904,0.825175,0.830268,0.779075
0.722832,0.825066,0.830185,0.778997
0.72276,0.824956,0.830102,0.778919
0.722688,0.824846,0.830019,0.778842
0.722615,0.824737,0.829936,0.778764
0.722543,0.824627,0.829853,0.778686
0.722471,0.824518,0.82977,0.778608
0.722399,0.824408,0.829687,0.77853
0.722326,0.824299,0.829604,0.778452
0.722254,0.824189,0.829521,0.778374
0.722182,0.82408,0.829438,0.778297
0.72211,0.82397,0.829355,0.778219
0.722037,0.823861,0.829272,0.778141
0.721965,0.823752,0.829189,0.778063
0.721893,0.823642,0.829106,0.777985
0.721821,0.823533,0.829023,0.777907
0.721749,0.823423,0.82894,0.77783
0.721676,0.823314,0.828857,0.777752
0.721604,0.823205,0.828775,0.777674
0.721532,0.823095,0.828692,0.777596
0.72146,0.822986,0.828609,0.777519
0.721388,0.822877,0.828526,0.777441
0.721316,0.822768,0.828443,0.777363
0.721244,0.822658,0.82836,0.777285
0.721171,0.822549,0.828277,0.777208
0.721099,0.82244,0.828195,0.77713
0.721027,0.822331,0.828112,0.777052
0.720955,0.822221,0.828029,0.776974
0.720883,0.822112,0.827946,0.776897
0.720811,0.822003,0.827863,0.776819
0.720739,0.821894,0.827781,0.776741
0.720667,0.821785,0.827698,0.776664
0.720595,0.821675,0.827615,0.776586
0.720523,0.821566,0.827532,0.776508
0.720451,0.821457,0.82745,0.776431
0.720379,0.821348,0.827367,0.776353
0.720307,0.821239,0.827284,0.776275
0.720234,0.82113,0.827201,0.776198
0.720162,0.821021,0.827119,0.77612
0.72009,0.820912,0.827036,0.776043
0.720018,0.820803,0.826953,0.775965
0.719946,0.820694,0.82687,0.775887
0.719874,0.820585,0.826788,0.77581
0.719802,0.820476,0.826705,0.775732
0.71973,0.820367,0.826622,0.775655
0.719658,0.820258,0.82654,0.775577
0.719587,0.820149,0.826457,0.7755
0.719515,0.82004,0.826374,0.775422
0.719443,0.819931,0.826292,0.775344
0.719371,0.819822,0.826209,0.775267
0.719299,0.819713,0.826127,0.775189
0.719227,0.819605,0.826044,0.775112
0.719155,0.819496,0.825961,0.775034
0.719083,0.819387,0.825879,0.774957
0.719011,0.819278,0.825796,0.774879
0.718939,0.819169,0.825714,0.774802
0.718867,0.81906,0.825631,0.774724
0.718795,0.818952,0.825548,0.774647
0.718723,0.818843,0.825466,0.774569
0.718652,0.818734,0.825383,0.774492
0.71858,0.818625,0.825301,0.774415
0.718508,0.818517,0.825218,0.774337
0.718436,0.818408,0.825136,0.77426
0.718364,0.818299,0.825053,0.774182
0.718292,0.818191,0.824971,0.774105
0.718221,0.818082,0.824888,0.774027
0.718149,0.817973,0.824806,0.77395
0.718077,0.817865,0.824723,0.773873
0.718005,0.817756,0.824641,0.773795
0.717933,0.817647,0.824558,0.773718
0.717861,0.817539,0.824476,0.77364
0.71779,0.81743,0.824393,0.773563
0.717718,0.817322,0.824311,0.773486
0.717646,0.817213,0.824229,0.773408
0.717574,0.817105,0.824146,0.773331
0.717503,0.816996,0.824064,0.773254
0.717431,0.816888,0.823981,0.773176
0.717359,0.816779,0.823899,0.773099
0.717287,0.816671,0.823817,0.773022
0.717216,0.816562,0.823734,0.772944
0.717144,0.816454,0.823652,0.772867
0.717072,0.816345,0.823569,0.77279
0.717001,0.816237,0.823487,0.772713
0.716929,0.816128,0.823405,0.772635
0.716857,0.81602,0.823322,0.772558
0.716785,0.815912,0.82324,0.772481
0.716714,0.815803,0.823158,0.772404
0.716642,0.815695,0.823075,0.772326
0.71657,0.815587,0.822993,0.772249
0.716499,0.815478,0.822911,0.772172
0.716427,0.81537,0.822829,0.772095
0.716355,0.815262,0.822746,0.772017
0.716284,0.815153,0.822664,0.77194
0.716212,0.815045,0.822582,0.771863
0.716141,0.814937,0.822499,0.771786
0.716069,0.814829,0.822417,0.771709
0.715997,0.81472,0.822335,0.771632
0.715926,0.814612,0.822253,0.771554
0.715854,0.814504,0.822171,0.771477
0.715783,0.814396,0.822088,0.7714
0.715711,0.814288,0.822006,0.771323
0.715639,0.81418,0.821924,0.771246
0.715568,0.814071,0.821842,0.771169
0.715496,0.813963,0.82176,0.771092
0.715425,0.813855,0.821677,0.771014
0.715353,0.813747,0.821595,0.770937
0.715282,0.813639,0.821513,0.77086
0.71521,0.813531,0.821431,0.770783
0.715139,0.813423,0.821349,0.770706
0.715067,0.813315,0.821267,0.770629
0.714996,0.813207,0.821184,0.770552
0.714924,0.813099,0.821102,0.770475
0.714853,0.812991,0.82102,0.770398
0.714781,0.812883,0.820938,0.770321
0.71471,0.812775,0.820856,0.770244
0.714638,0.812667,0.820774,0.770167
0.714567,0.812559,0.820692,0.77009
0.714495,0.812451,0.82061,0.770013
0.714424,0.812343,0.820528,0.769936
0.714352,0.812235,0.820446,0.769859
0.714281,0.812127,0.820364,0.769782
0.71421,0.81202,0.820282,0.769705
0.714138,0.811912,0.8202,0.769628
0.714067,0.811804,0.820118,0.769551
0.713995,0.811696,0.820036,0.769474
0.713924,0.811588,0.819954,0.769397
0.713853,0.811481,0.819872,0.76932
0.713781,0.811373,0.81979,0.769243
0.71371,0.811265,0.819708,0.769166
0.713638,0.811157,0.819626,0.769089
0.713567,0.81105,0.819544,0.769012
0.713496,0.810942,0.819462,0.768935
0.713424,0.810834,0.81938,0.768859
0.713353,0.810726,0.819298,0.768782
0.713282,0.810619,0.819216,0.768705
0.71321,0.810511,0.819134,0.768628
0.713139,0.810403,0.819052,0.768551
0.713068,0.810296,0.81897,0.768474
0.712996,0.810188,0.818888,0.768397
0.712925,0.810081,0.818806,0.76832
0.712854,0.809973,0.818724,0.768244
0.712782,0.809865,0.818643,0.768167
0.712711,0.809758,0.818561,0.76809
0.71264,0.80965,0.818479,0.768013
0.712569,0.809543,0.818397,0.767936
0.712497,0.809435,0.818315,0.76786
0.712426,0.809328,0.818233,0.767783
0.712355,0.80922,0.818152,0.767706
0.712284,0.809113,0.81807,0.767629
0.712212,0.809005,0.817988,0.767552
0.712141,0.808898,0.817906,0.767476
0.71207,0.80879,0.817824,0.767399
0.711999,0.808683,0.817743,0.767322
0.711928,0.808576,0.817661,0.767246
0.711856,0.808468,0.817579,0.767169
0.711785,0.808361,0.817497,0.767092
0.711714,0.808254,0.817415,0.767015
0.711643,0.808146,0.817334,0.766939
0.711572,0.808039,0.817252,0.766862
0.711501,0.807932,0.81717,0.766785
0.711429,0.807824,0.817089,0.766709
0.711358,0.807717,0.817007,0.766632
0.711287,0.80761,0.816925,0.766555
0.711216,0.807502,0.816843,0.766479
0.711145,0.807395,0.816762,0.766402
0.711074,0.807288,0.81668,0.766325
0.711003,0.807181,0.816598,0.766249
0.710932,0.807074,0.816517,0.766172
0.71086,0.806966,0.816435,0.766095
0.710789,0.806859,0.816353,0.766019
0.710718,0.806752,0.816272,0.765942
0.710647,0.806645,0.81619,0.765866
0.710576,0.806538,0.816109,0.765789
0.710505,0.806431,0.816027,0.765712
0.710434,0.806324,0.815945,0.765636
0.710363,0.806216,0.815864,0.765559
0.710292,0.806109,0.815782,0.765483
0.710221,0.806002,0.815701,0.765406
0.71015,0.805895,0.815619,0.76533
0.710079,0.805788,0.815537,0.765253
0.710008,0.805681,0.815456,0.765177
0.709937,0.805574,0.815374,0.7651
0.709866,0.805467,0.815293,0.765024
0.709795,0.80536,0.815211,0.764947
0.709724,0.805253,0.81513,0.764871
0.709653,0.805146,0.815048,0.764794
0.709582,0.805039,0.814967,0.764718
0.709511,0.804932,0.814885,0.764641
0.70944,0.804826,0.814804,0.764565
0.709369,0.804719,0.814722,0.764488
0.709298,0.804612,0.814641,0.764412
0.709227,0.804505,0.814559,0.764335
0.709156,0.804398,0.814478,0.764259
0.709085,0.804291,0.814396,0.764183
0.709015,0.804184,0.814315,0.764106
0.708944,0.804078,0.814234,0.76403
0.708873,0.803971,0.814152,0.763953
0.708802,0.803864,0.814071,0.763877
0.708731,0.803757,0.813989,0.763801
0.70866,0.803651,0.813908,0.763724
0.708589,0.803544,0.813827,0.763648
0.708518,0.803437,0.813745,0.763571
0.708448,0.80333,0.813664,0.763495
0.708377,0.803224,0.813582,0.763419
0.708306,0.803117,0.813501,0.763342
0.708235,0.80301,0.81342,0.763266
0.708164,0.802904,0.813338,0.76319
0.708093,0.802797,0.813257,0.763113
0.708023,0.80269,0.813176,0.763037
0.707952,0.802584,0.813094,0.762961
0.707881,0.802477,0.813013,0.762884
0.70781,0.802371,0.812932,0.762808
0.707739,0.802264,0.812851,0.762732
0.707669,0.802158,0.812769,0.762656
0.707598,0.802051,0.812688,0.762579
0.707527,0.801945,0.812607,0.762503
0.707456,0.801838,0.812525,0.762427
0.707386,0.801732,0.812444,0.762351
0.707315,0.801625,0.812363,0.762274
0.707244,0.801519,0.812282,0.762198
0.707173,0.801412,0.8122,0.762122
0.707103,0.801306,0.812119,0.762046
0.707032,0.801199,0.812038,0.761969
0.706961,0.801093,0.811957,0.761893
0.706891,0.800986,0.811876,0.761817
0.70682,0.80088,0.811794,0.761741
0.706749,0.800774,0.811713,0.761665
0.706679,0.800667,0.811632,0.761589
0.706608,0.800561,0.811551,0.761512
0.706537,0.800455,0.81147,0.761436
0.706467,0.800348,0.811389,0.76136
0.706396,0.800242,0.811307,0.761284
0.706325,0.800136,0.811226,0.761208
0.706255,0.80003,0.811145,0.761132
0.706184,0.799923,0.811064,0.761056
0.706113,0.799817,0.810983,0.76098
0.706043,0.799711,0.810902,0.760903
0.705972,0.799605,0.810821,0.760827
0.705902,0.799498,0.81074,0.760751
0.705831,0.799392,0.810659,0.760675
0.70576,0.799286,0.810578,0.760599
0.70569,0.79918,0.810497,0.760523
0.705619,0.799074,0.810415,0.760447
0.705549,0.798968,0.810334,0.760371
0.705478,0.798862,0.810253,0.760295
0.705408,0.798755,0.810172,0.760219
0.705337,0.798649,0.810091,0.760143
0.705267,0.798543,0.81001,0.760067
0.705196,0.798437,0.809929,0.759991
0.705125,0.798331,0.809848,0.759915
0.705055,0.798225,0.809767,0.759839
0.704984,0.798119,0.809686,0.759763
0.704914,0.798013,0.809605,0.759687
0.704843,0.797907,0.809524,0.759611
0.704773,0.797801,0.809444,0.759535
0.704702,0.797695,0.809363,0.759459
0.704632,0.797589,0.809282,0.759383
0.704562,0.797483,0.809201,0.759307
0.704491,0.797377,0.80912,0.759231
0.704421,0.797272,0.809039,0.759155
0.70435,0.797166,0.808958,0.759079
0.70428,0.79706,0.808877,0.759003
0.704209,0.796954,0.808796,0.758928
0.704139,0.796848,0.808715,0.758852
0.704069,0.796742,0.808634,0.758776
0.703998,0.796636,0.808554,0.7587
0.703928,0.796531,0.808473,0.758624
0.703857,0.796425,0.808392,0.758548
0.703787,0.796319,0.808311,0.758472
0.703717,0.796213,0.80823,0.758396
0.703646,0.796108,0.808149,0.758321
0.703576,0.796002,0.808069,0.758245
0.703505,0.795896,0.807988,0.758169
0.703435,0.79579,0.807907,0.758093
0.703365,0.795685,0.807826,0.758017
0.703294,0.795579,0.807745,0.757942
0.703224,0.795473,0.807665,0.757866
0.703154,0.795368,0.807584,0.75779
0.703083,0.795262,0.807503,0.757714
0.703013,0.795157,0.807422,0.757638
0.702943,0.795051,0.807342,0.757563
0.702873,0.794945,0.807261,0.757487
0.702802,0.79484,0.80718,0.757411
0.702732,0.794734,0.807099,0.757335
0.702662,0.794629,0.807019,0.75726
0.702591,0.794523,0.806938,0.757184
0.702521,0.794418,0.806857,0.757108
0.702451,0.794312,0.806777,0.757033
0.702381,0.794207,0.806696,0.756957
0.70231,0.794101,0.806615,0.756881
0.70224,0.793996,0.806535,0.756805
0.70217,0.79389,0.806454,0.75673
0.7021,0.793785,0.806373,0.756654
0.70203,0.793679,0.806293,0.756578
0.701959,0.793574,0.806212,0.756503
0.701889,0.793469,0.806131,0.756427
0.701819,0.793363,0.806051,0.756351
0.701749,0.793258,0.80597,0.756276
0.701679,0.793152,0.80589,0.7562
0.701608,0.793047,0.805809,0.756125
0.701538,0.792942,0.805728,0.756049
0.701468,0.792836,0.805648,0.755973
0.701398,0.792731,0.805567,0.755898
0.701328,0.792626,0.805487,0.755822
0.701258,0.792521,0.805406,0.755747
0.701188,0.792415,0.805326,0.755671
0.701117,0.79231,0.805245,0.755595
0.701047,0.792205,0.805165,0.75552
0.700977,0.7921,0.805084,0.755444
0.700907,0.791994,0.805004,0.755369
0.700837,0.791889,0.804923,0.755293
0.700767,0.791784,0.804843,0.755218
0.700697,0.791679,0.804762,0.755142
0.700627,0.791574,0.804682,0.755067
0.700557,0.791469,0.804601,0.754991
0.700487,0.791364,0.804521,0.754916
0.700417,0.791258,0.80444,0.75484
0.700347,0.791153,0.80436,0.754765
0.700277,0.791048,0.804279,0.754689
0.700207,0.790943,0.804199,0.754614
0.700137,0.790838,0.804119,0.754538
0.700067,0.790733,0.804038,0.754463
0.699997,0.790628,0.803958,0.754387
0.699927,0.790523,0.803877,0.754312
0.699857,0.790418,0.803797,0.754237
0.699787,0.790313,0.803717,0.754161
0.699717,0.790208,0.803636,0.754086
0.699647,0.790103,0.803556,0.75401
0.699577,0.789998,0.803475,0.753935
0.699507,0.789893,0.803395,0.753859
0.699437,0.789788,0.803315,0.753784
0.699367,0.789684,0.803234,0.753709
0.699297,0.789579,0.803154,0.753633
0.699227,0.789474,0.803074,0.753558
0.699157,0.789369,0.802993,0.753483
0.699087,0.789264,0.802913,0.753407
0.699017,0.789159,0.802833,0.753332
0.698947,0.789055,0.802753,0.753257
0.698877,0.78895,0.802672,0.753181
0.698807,0.788845,0.802592,0.753106
0.698738,0.78874,0.802512,0.753031
0.698668,0.788635,0.802432,0.752955
0.698598,0.788531,0.802351,0.75288
0.698528,0.788426,0.802271,0.752805
0.698458,0.788321,0.802191,0.752729
0.698388,0.788217,0.802111,0.752654
0.698318,0.788112,0.80203,0.752579
0.698249,0.788007,0.80195,0.752504
0.698179,0.787903,0.80187,0.752428
0.698109,0.787798,0.80179,0.752353
0.698039,0.787693,0.80171,0.752278
0.697969,0.787589,0.80163,0.752203
0.6979,0.787484,0.801549,0.752128
0.69783,0.787379,0.801469,0.752052
0.69776,0.787275,0.801389,0.751977
0.69769,0.78717,0.801309,0.751902
0.69762,0.787066,0.801229,0.751827
0.697551,0.786961,0.801149,0.751752
0.697481,0.786857,0.801069,0.751676
0.697411,0.786752,0.800988,0.751601
0.697341,0.786648,0.800908,0.751526
0.697272,0.786543,0.800828,0.751451
0.697202,0.786439,0.800748,0.751376
0.697132,0.786334,0.800668,0.751301
0.697063,0.78623,0.800588,0.751225
0.696993,0.786125,0.800508,0.75115
0.696923,0.786021,0.800428,0.751075
0.696853,0.785917,0.800348,0.751
0.696784,0.785812,0.800268,0.750925
0.696714,0.785708,0.800188,0.75085
0.696644,0.785604,0.800108,0.750775
0.696575,0.785499,0.800028,0.7507
0.696505,0.785395,0.799948,0.750625
0.696435,0.785291,0.799868,0.75055
0.696366,0.785186,0.799788,0.750475
0.696296,0.785082,0.799708,0.7504
0.696227,0.784978,0.799628,0.750324
0.696157,0.784874,0.799548,0.750249
0.696087,0.784769,0.799468,0.750174
0.696018,0.784665,0.799388,0.750099
0.695948,0.784561,0.799308,0.750024
0.695879,0.784457,0.799228,0.749949
0.695809,0.784352,0.799148,0.749874
0.695739,0.784248,0.799068,0.749799
0.69567,0.784144,0.798988,0.749724
0.6956,0.78404,0.798908,0.749649
0.695531,0.783936,0.798829,0.749574
0.695461,0.783832,0.798749,0.7495
0.695392,0.783728,0.798669,0.749425
0.695322,0.783624,0.798589,0.74935
0.695252,0.783519,0.798509,0.749275
0.695183,0.783415,0.798429,0.7492
0.695113,0.783311,0.798349,0.749125
0.695044,0.783207,0.79827,0.74905
0.694974,0.783103,0.79819,0.748975
0.694905,0.782999,0.79811,0.7489
0.694835,0.782895,0.79803,0.748825
0.694766,0.782791,0.79795,0.74875
0.694696,0.782687,0.79787,0.748675
0.694627,0.782583,0.797791,0.748601
0.694558,0.78248,0.797711,0.748526
0.694488,0.782376,0.797631,0.748451
0.694419,0.782272,0.797551,0.748376
0.694349,0.782168,0.797472,0.748301
0.69428,0.782064,0.797392,0.748226
0.69421,0.78196,0.797312,0.748152
0.694141,0.781856,0.797232,0.748077
0.694071,0.781752,0.797153,0.748002
0.694002,0.781649,0.797073,0.747927
0.693933,0.781545,0.796993,0.747852
0.693863,0.781441,0.796914,0.747778
0.693794,0.781337,0.796834,0.747703
0.693725,0.781233,0.796754,0.747628
0.693655,0.78113,0.796675,0.747553
0.693586,0.781026,0.796595,0.747479
0.693516,0.780922,0.796515,0.747404
0.693447,0.780818,0.796436,0.747329
0.693378,0.780715,0.796356,0.747254
