energy,productivity,fun,hunger
0.586153,0.746512,0.579612,0.599955
0.586094,0.746425,0.596941,0.599895
0.585743,0.746339,0.614787,0.599835
0.585391,0.746252,0.633168,0.599775
0.58504,0.746166,0.652097,0.599715
0.584689,0.74608,0.671593,0.599655
0.584338,0.745993,0.691672,0.599595
0.583988,0.745907,0.712351,0.599535
0.583637,0.745821,0.733648,0.599475
0.583287,0.745735,0.733574,0.599415
0.582937,0.745648,0.733501,0.599355
0.582587,0.745562,0.733428,0.599295
0.582238,0.745476,0.733354,0.599235
0.581889,0.745389,0.733281,0.599175
0.58154,0.745303,0.733208,0.599115
0.581191,0.745217,0.733134,0.599056
0.580842,0.745131,0.733061,0.598996
0.580493,0.745045,0.732988,0.598936
0.580145,0.744958,0.732914,0.598876
0.579797,0.744872,0.732841,0.598816
0.579449,0.744786,0.732768,0.598756
0.579102,0.7447,0.732695,0.598696
0.578754,0.744614,0.732621,0.598636
0.578407,0.744527,0.732548,0.598576
0.57806,0.744441,0.732475,0.598517
0.577713,0.744355,0.732402,0.598457
0.577367,0.744269,0.732328,0.598397
0.57702,0.744183,0.732255,0.598337
0.576674,0.744097,0.732182,0.598277
0.576328,0.744011,0.732109,0.598217
0.575982,0.743925,0.732035,0.598158
0.575637,0.743839,0.731962,0.598098
0.575291,0.743752,0.731889,0.598038
0.574946,0.743666,0.731816,0.597978
0.574601,0.74358,0.731743,0.597918
0.574257,0.743494,0.73167,0.597859
0.573912,0.743408,0.731596,0.597799
0.573568,0.743322,0.731523,0.597739
0.573224,0.743236,0.73145,0.597679
0.57288,0.74315,0.731377,0.597619
0.572536,0.743064,0.731304,0.59756
0.572192,0.742978,0.731231,0.5975
0.571849,0.742892,0.731158,0.59744
0.571506,0.742806,0.731084,0.59738
0.571163,0.74272,0.731011,0.597321
0.570821,0.742634,0.730938,0.597261
0.570478,0.742549,0.730865,0.597201
0.570136,0.742463,0.730792,0.597142
0.569794,0.742377,0.730719,0.597082
0.569452,0.742291,0.730646,0.597022
0.56911,0.742205,0.730573,0.596962
0.568769,0.742119,0.7305,0.596903
0.568428,0.742033,0.730427,0.596843
0.568087,0.741947,0.730354,0.596783
0.567746,0.741862,0.730281,0.596724
0.567405,0.741776,0.730208,0.596664
0.567065,0.74169,0.730135,0.596604
0.566725,0.741604,0.730062,0.596545
0.566385,0.741518,0.729989,0.596485
0.566328,0.741432,0.729916,0.596425
0.566271,0.741347,0.729843,0.596366
0.566215,0.741261,0.72977,0.596306
0.566158,0.741175,0.729697,0.596246
0.566101,0.741089,0.729624,0.596187
0.566045,0.741004,0.729551,0.596127
0.565988,0.740918,0.729478,0.596068
0.565932,0.740832,0.729405,0.596008
0.565875,0.740746,0.729332,0.595948
0.565818,0.740661,0.729259,0.595889
0.565762,0.740575,0.729186,0.595829
0.565705,0.740489,0.729113,0.59577
0.565649,0.740404,0.72904,0.59571
0.565592,0.740318,0.728967,0.59565
0.565536,0.740232,0.728894,0.595591
0.565479,0.740147,0.728821,0.595531
0.565422,0.740061,0.728749,0.595472
0.565366,0.739975,0.728676,0.595412
0.565309,0.73989,0.728603,0.595353
0.565253,0.739804,0.72853,0.595293
0.565196,0.739719,0.728457,0.595234
0.56514,0.739633,0.728384,0.595174
0.565083,0.739547,0.728311,0.595115
0.565027,0.739462,0.728239,0.595055
0.56497,0.739376,0.728166,0.594996
0.564914,0.739291,0.728093,0.594936
0.564857,0.739205,0.72802,0.594877
0.564801,0.73912,0.727947,0.594817
0.564744,0.739034,0.727875,0.594758
0.564688,0.738949,0.727802,0.594698
0.564631,0.738863,0.727729,0.594639
0.564575,0.738778,0.727656,0.594579
0.564518,0.738692,0.727583,0.59452
0.564462,0.738607,0.727511,0.59446
0.564406,0.738521,0.727438,0.594401
0.564349,0.738436,0.727365,0.594341
0.564293,0.73835,0.727292,0.594282
0.564236,0.738265,0.72722,0.594223
0.56418,0.738179,0.727147,0.594163
0.564123,0.738094,0.727074,0.594104
0.564067,0.738009,0.727002,0.594044
0.564011,0.737923,0.726929,0.593985
0.563954,0.737838,0.726856,0.593926
0.563898,0.737752,0.726783,0.593866
0.563841,0.737667,0.726711,0.593807
0.563785,0.737582,0.726638,0.593747
0.563729,0.737496,0.726565,0.593688
0.563672,0.737411,0.726493,0.593629
0.563616,0.737326,0.72642,0.593569
0.56356,0.73724,0.726348,0.59351
0.563503,0.737155,0.726275,0.593451
0.563447,0.73707,0.726202,0.593391
0.56339,0.736984,0.72613,0.593332
0.563334,0.736899,0.726057,0.593273
0.563278,0.736814,0.725984,0.593213
0.563221,0.736729,0.725912,0.593154
0.563165,0.736643,0.725839,0.593095
0.563109,0.736558,0.725767,0.593035
0.563053,0.736473,0.725694,0.592976
0.562996,0.736388,0.725622,0.592917
0.56294,0.736303,0.725549,0.592857
0.562884,0.736217,0.725476,0.592798
0.562827,0.736132,0.725404,0.592739
0.562771,0.736047,0.725331,0.59268
0.562715,0.735962,0.725259,0.59262
0.562659,0.735877,0.725186,0.592561
0.562602,0.735792,0.725114,0.592502
0.562546,0.735706,0.725041,0.592442
0.56249,0.735621,0.724969,0.592383
0.562433,0.735536,0.724896,0.592324
0.562377,0.735451,0.724824,0.592265
0.562321,0.735366,0.724751,0.592206
0.562265,0.735281,0.724679,0.592146
0.562209,0.735196,0.724606,0.592087
0.562152,0.735111,0.724534,0.592028
0.562096,0.735026,0.724461,0.591969
0.56204,0.734941,0.724389,0.59191
0.561984,0.734856,0.724316,0.59185
0.561927,0.734771,0.724244,0.591791
0.561871,0.734686,0.724172,0.591732
0.561815,0.734601,0.724099,0.591673
0.561759,0.734516,0.724027,0.591614
0.561703,0.734431,0.723954,0.591554
0.561647,0.734346,0.723882,0.591495
0.56159,0.734261,0.72381,0.591436
0.561534,0.734176,0.723737,0.591377
0.561478,0.734091,0.723665,0.591318
0.561422,0.734006,0.723593,0.591259
0.561366,0.733921,0.72352,0.5912
0.56131,0.733836,0.723448,0.59114
0.561254,0.733751,0.723375,0.591081
0.561197,0.733666,0.723303,0.591022
0.561141,0.733581,0.723231,0.590963
0.561085,0.733496,0.723158,0.590904
0.561029,0.733411,0.723086,0.590845
0.560973,0.733327,0.723014,0.590786
0.560917,0.733242,0.722942,0.590727
0.560861,0.733157,0.722869,0.590668
0.560805,0.733072,0.722797,0.590609
0.560749,0.732987,0.722725,0.59055
0.560693,0.732902,0.722652,0.590491
0.560636,0.732818,0.72258,0.590432
0.56058,0.732733,0.722508,0.590372
0.560524,0.732648,0.722436,0.590313
0.560468,0.732563,0.722363,0.590254
0.560412,0.732479,0.722291,0.590195
0.560356,0.732394,0.722219,0.590136
0.5603,0.732309,0.722147,0.590077
0.560244,0.732224,0.722074,0.590018
0.560188,0.73214,0.722002,0.589959
0.560132,0.732055,0.72193,0.5899
0.560076,0.73197,0.721858,0.589841
0.56002,0.731885,0.721786,0.589782
0.559964,0.731801,0.721714,0.589723
0.559908,0.731716,0.721641,0.589664
0.559852,0.731631,0.721569,0.589605
0.559796,0.731547,0.721497,0.589546
0.55974,0.731462,0.721425,0.589488
0.559684,0.731377,0.721353,0.589429
0.559628,0.731293,0.721281,0.58937
0.559572,0.731208,0.721208,0.589311
0.559516,0.731124,0.721136,0.589252
0.55946,0.731039,0.721064,0.589193
0.559404,0.730954,0.720992,0.589134
0.559348,0.73087,0.72092,0.589075
0.559292,0.730785,0.720848,0.589016
0.559237,0.730701,0.720776,0.588957
0.559181,0.730616,0.720704,0.588898
0.559125,0.730532,0.720632,0.588839
0.559069,0.730447,0.72056,0.588781
0.559013,0.730363,0.720488,0.588722
0.558957,0.730278,0.720416,0.588663
0.558901,0.730194,0.720343,0.588604
0.558845,0.730109,0.720271,0.588545
0.558789,0.730025,0.720199,0.588486
0.558733,0.72994,0.720127,0.588427
0.558678,0.729856,0.720055,0.588369
0.558622,0.729771,0.719983,0.58831
0.558566,0.729687,0.719911,0.588251
0.55851,0.729602,0.719839,0.588192
0.558454,0.729518,0.719767,0.588133
0.558398,0.729434,0.719695,0.588074
0.558342,0.729349,0.719623,0.588016
0.558287,0.729265,0.719552,0.587957
0.558231,0.72918,0.71948,0.587898
0.558175,0.729096,0.719408,0.587839
0.558119,0.729012,0.719336,0.58778
0.558063,0.728927,0.719264,0.587722
0.558008,0.728843,0.719192,0.587663
0.557952,0.728759,0.71912,0.587604
0.557896,0.728674,0.719048,0.587545
0.55784,0.72859,0.718976,0.587487
0.557784,0.728506,0.718904,0.587428
0.557729,0.728421,0.718832,0.587369
0.557673,0.728337,0.71876,0.58731
0.557617,0.728253,0.718689,0.587252
0.557561,0.728169,0.718617,0.587193
0.557506,0.728084,0.718545,0.587134
0.55745,0.728,0.718473,0.587075
0.557394,0.727916,0.718401,0.587017
0.557338,0.727832,0.718329,0.586958
0.557283,0.727747,0.718257,0.586899
0.557227,0.727663,0.718186,0.586841
0.557171,0.727579,0.718114,0.586782
0.557115,0.727495,0.718042,0.586723
0.55706,0.727411,0.71797,0.586665
0.557004,0.727326,0.717898,0.586606
0.556948,0.727242,0.717827,0.586547
0.556893,0.727158,0.717755,0.586489
0.556837,0.727074,0.717683,0.58643
0.556781,0.72699,0.717611,0.586371
0.556726,0.726906,0.717539,0.586313
0.55667,0.726822,0.717468,0.586254
0.556614,0.726738,0.717396,0.586195
0.556559,0.726653,0.717324,0.586137
0.556503,0.726569,0.717253,0.586078
0.556447,0.726485,0.717181,0.58602
0.556392,0.726401,0.717109,0.585961
0.556336,0.726317,0.717037,0.585902
0.55628,0.726233,0.716966,0.585844
0.556225,0.726149,0.716894,0.585785
0.556169,0.726065,0.716822,0.585727
0.556113,0.725981,0.716751,0.585668
0.556058,0.725897,0.716679,0.58561
0.556002,0.725813,0.716607,0.585551
0.555947,0.725729,0.716536,0.585492
0.555891,0.725645,0.716464,0.585434
0.555835,0.725561,0.716392,0.585375
0.55578,0.725477,0.716321,0.585317
0.555724,0.725393,0.716249,0.585258
0.555669,0.725309,0.716177,0.5852
0.555613,0.725225,0.716106,0.585141
0.555558,0.725142,0.716034,0.585083
0.555502,0.725058,0.715963,0.585024
0.555446,0.724974,0.715891,0.584966
0.555391,0.72489,0.715819,0.584907
0.555335,0.724806,0.715748,0.584849
0.55528,0.724722,0.715676,0.58479
0.555224,0.724638,0.715605,0.584732
0.555169,0.724554,0.715533,0.584673
0.555113,0.724471,0.715462,0.584615
0.555058,0.724387,0.71539,0.584556
0.555002,0.724303,0.715318,0.584498
0.554947,0.724219,0.715247,0.584439
0.554891,0.724135,0.715175,0.584381
0.554836,0.724052,0.715104,0.584323
0.55478,0.723968,0.715032,0.584264
0.554725,0.723884,0.714961,0.584206
0.554669,0.7238,0.714889,0.584147
0.554614,0.723716,0.714818,0.584089
0.554558,0.723633,0.714746,0.58403
0.554503,0.723549,0.714675,0.583972
0.554448,0.723465,0.714603,0.583914
0.554392,0.723382,0.714532,0.583855
0.554337,0.723298,0.714461,0.583797
0.554281,0.723214,0.714389,0.583738
0.554226,0.723131,0.714318,0.58368
0.55417,0.723047,0.714246,0.583622
0.554115,0.722963,0.714175,0.583563
0.55406,0.72288,0.714103,0.583505
0.554004,0.722796,0.714032,0.583447
0.553949,0.722712,0.713961,0.583388
0.553893,0.722629,0.713889,0.58333
0.553838,0.722545,0.713818,0.583272
0.553783,0.722461,0.713746,0.583213
0.553727,0.722378,0.713675,0.583155
0.553672,0.722294,0.713604,0.583097
0.553616,0.722211,0.713532,0.583038
0.553561,0.722127,0.713461,0.58298
0.553506,0.722044,0.71339,0.582922
0.55345,0.72196,0.713318,0.582863
0.553395,0.721876,0.713247,0.582805
0.55334,0.721793,0.713176,0.582747
0.553284,0.721709,0.713104,0.582689
0.553229,0.721626,0.713033,0.58263
0.553174,0.721542,0.712962,0.582572
0.553118,0.721459,0.71289,0.582514
0.553063,0.721375,0.712819,0.582456
0.553008,0.721292,0.712748,0.582397
0.552952,0.721209,0.712677,0.582339
0.552897,0.721125,0.712605,0.582281
0.552842,0.721042,0.712534,0.582223
0.552787,0.720958,0.712463,0.582164
0.552731,0.720875,0.712391,0.582106
0.552676,0.720791,0.71232,0.582048
0.552621,0.720708,0.712249,0.58199
0.552566,0.720625,0.712178,0.581932
0.55251,0.720541,0.712107,0.581873
0.552455,0.720458,0.712035,0.581815
0.5524,0.720374,0.711964,0.581757
0.552345,0.720291,0.711893,0.581699
0.552289,0.720208,0.711822,0.581641
0.552234,0.720124,0.711751,0.581583
0.552179,0.720041,0.711679,0.581524
0.552124,0.719958,0.711608,0.581466
0.552068,0.719874,0.711537,0.581408
0.552013,0.719791,0.711466,0.58135
0.551958,0.719708,0.711395,0.581292
0.551903,0.719625,0.711324,0.581234
0.551848,0.719541,0.711253,0.581176
0.551792,0.719458,0.711181,0.581117
0.551737,0.719375,0.71111,0.581059
0.551682,0.719292,0.711039,0.581001
0.551627,0.719208,0.710968,0.580943
0.551572,0.719125,0.710897,0.580885
0.551517,0.719042,0.710826,0.580827
0.551461,0.718959,0.710755,0.580769
0.551406,0.718876,0.710684,0.580711
0.551351,0.718792,0.710613,0.580653
0.551296,0.718709,0.710542,0.580595
0.551241,0.718626,0.710471,0.580537
0.551186,0.718543,0.710399,0.580479
0.551131,0.71846,0.731638,0.58042
0.5508,0.718377,0.731565,0.580362
0.55047,0.718294,0.731492,0.580304
0.550139,0.71821,0.731419,0.580246
0.549809,0.718127,0.731346,0.580188
0.549479,0.718044,0.731273,0.58013
0.54915,0.717961,0.731199,0.580072
0.54882,0.717878,0.731126,0.580014
0.548491,0.717795,0.731053,0.579956
0.548162,0.717712,0.73098,0.579898
0.547833,0.717629,0.730907,0.57984
0.547778,0.717546,0.730834,0.579782
0.547723,0.717463,0.730761,0.579724
0.547669,0.71738,0.730688,0.579666
0.547614,0.717297,0.730615,0.579608
0.547559,0.717214,0.730542,0.57955
0.547504,0.717131,0.730469,0.579492
0.54745,0.717048,0.730396,0.579435
0.547395,0.716965,0.730322,0.579377
0.54734,0.716882,0.730249,0.579319
0.547285,0.716799,0.730176,0.579261
0.547231,0.716716,0.730103,0.579203
0.547176,0.716633,0.73003,0.579145
0.547121,0.71655,0.729957,0.579087
0.547067,0.716467,0.729884,0.579029
0.547012,0.716384,0.729811,0.578971
0.546957,0.716301,0.729738,0.578913
0.546902,0.716219,0.729665,0.578855
0.546848,0.716136,0.729592,0.578797
0.546793,0.716053,0.72952,0.57874
0.546738,0.71597,0.729447,0.578682
0.546684,0.715887,0.729374,0.578624
0.546629,0.715804,0.729301,0.578566
0.546574,0.715722,0.729228,0.578508
0.54652,0.715639,0.729155,0.57845
0.546465,0.715556,0.729082,0.578392
0.54641,0.715473,0.729009,0.578335
0.546356,0.71539,0.728936,0.578277
0.546301,0.715308,0.728863,0.578219
0.546247,0.715225,0.72879,0.578161
0.546192,0.715142,0.728717,0.578103
0.546137,0.715059,0.728645,0.578045
0.546083,0.714977,0.728572,0.577988
0.546028,0.714894,0.728499,0.57793
0.545973,0.714811,0.728426,0.577872
0.545919,0.714728,0.728353,0.577814
0.545864,0.714646,0.72828,0.577757
0.54581,0.714563,0.728208,0.577699
0.545755,0.71448,0.728135,0.577641
0.545701,0.714398,0.728062,0.577583
0.545646,0.714315,0.727989,0.577525
0.545591,0.714232,0.727916,0.577468
0.545537,0.71415,0.727843,0.57741
0.545482,0.714067,0.727771,0.577352
0.545428,0.713984,0.727698,0.577294
0.545373,0.713902,0.727625,0.577237
0.545319,0.713819,0.727552,0.577179
0.545264,0.713737,0.72748,0.577121
0.54521,0.713654,0.727407,0.577064
0.544883,0.713571,0.727334,0.577006
0.544556,0.713489,0.727261,0.576948
0.544229,0.713406,0.727189,0.576891
0.543902,0.713324,0.727116,0.576833
0.543576,0.713241,0.727043,0.576775
0.54325,0.713159,0.726971,0.576717
0.542924,0.713076,0.726898,0.57666
0.542598,0.712994,0.726825,0.576602
0.542273,0.712911,0.726752,0.576544
0.541947,0.712829,0.72668,0.576487
0.541622,0.712746,0.726607,0.576429
0.541297,0.712664,0.726534,0.576372
0.540973,0.712581,0.726462,0.576314
0.540648,0.712499,0.726389,0.576256
0.540324,0.712416,0.726317,0.576199
0.54,0.712334,0.726244,0.576141
0.539676,0.712252,0.726171,0.576083
0.539352,0.712169,0.726099,0.576026
0.539028,0.712087,0.726026,0.575968
0.538705,0.712004,0.725953,0.575911
0.538382,0.711922,0.725881,0.575853
0.538059,0.71184,0.725808,0.575795
0.537736,0.711757,0.725736,0.575738
0.537413,0.711675,0.725663,0.57568
0.537091,0.711593,0.725591,0.575623
0.536769,0.71151,0.725518,0.575565
0.536446,0.711428,0.725445,0.575508
0.536125,0.711346,0.725373,0.57545
0.535803,0.711263,0.7253,0.575392
0.535482,0.711181,0.725228,0.575335
0.53516,0.711099,0.725155,0.575277
0.534839,0.711016,0.725083,0.57522
0.534518,0.710934,0.72501,0.575162
0.534198,0.710852,0.724938,0.575105
0.533877,0.71077,0.724865,0.575047
0.533557,0.710687,0.724793,0.57499
0.533237,0.710605,0.72472,0.574932
0.532917,0.710523,0.724648,0.574875
0.532597,0.710441,0.724575,0.574817
0.532278,0.710358,0.724503,0.57476
0.531958,0.710276,0.72443,0.574702
0.531639,0.710194,0.724358,0.574645
0.53132,0.710112,0.724286,0.574587
0.531001,0.71003,0.724213,0.57453
0.530683,0.709948,0.724141,0.574473
0.530364,0.709865,0.724068,0.574415
0.530046,0.709783,0.723996,0.574358
0.529728,0.709701,0.723924,0.5743
0.52941,0.709619,0.723851,0.574243
0.529093,0.709537,0.723779,0.574185
0.528775,0.709455,0.723706,0.574128
0.528458,0.709373,0.723634,0.574071
0.528141,0.709291,0.723562,0.574013
0.527824,0.709209,0.723489,0.573956
0.527508,0.709127,0.723417,0.573898
0.527191,0.709044,0.723345,0.573841
0.526875,0.708962,0.723272,0.573784
0.526559,0.70888,0.7232,0.573726
0.526243,0.708798,0.723128,0.573669
0.525927,0.708716,0.723055,0.573611
0.525612,0.708634,0.722983,0.573554
0.525296,0.708552,0.722911,0.573497
0.524981,0.70847,0.722838,0.573439
0.524666,0.708388,0.722766,0.573382
0.524351,0.708306,0.722694,0.573325
0.524037,0.708225,0.722622,0.573267
0.523722,0.708143,0.722549,0.57321
0.523408,0.708061,0.722477,0.573153
0.523094,0.707979,0.722405,0.573095
0.521473,0.708605,0.719443,0.573038
0.519856,0.709231,0.716494,0.572981
0.518245,0.709858,0.713556,0.572923
0.516638,0.710486,0.710631,0.572866
0.515037,0.711114,0.707718,0.572809
0.513441,0.711743,0.704816,0.572752
0.511849,0.712372,0.701927,0.572694
0.510262,0.713002,0.699049,0.572637
0.508681,0.713632,0.696184,0.57258
0.507104,0.714263,0.69333,0.572523
0.505532,0.714895,0.690487,0.572465
0.503965,0.715527,0.687656,0.572408
0.502403,0.71616,0.684837,0.572351
0.500846,0.716793,0.68203,0.572294
0.499293,0.717427,0.679234,0.572236
0.497746,0.718061,0.676449,0.572179
0.496203,0.718696,0.673676,0.572122
0.494665,0.719331,0.670914,0.572065
0.493131,0.719967,0.668164,0.572007
0.491603,0.720604,0.665424,0.57195
0.490079,0.721241,0.662696,0.571893
0.48856,0.721879,0.65998,0.571836
0.487045,0.722517,0.657274,0.571779
0.485536,0.723156,0.654579,0.571722
0.484031,0.723795,0.651896,0.571664
0.48253,0.724435,0.649223,0.571607
0.481035,0.725076,0.646562,0.57155
0.479544,0.725717,0.643911,0.571493
0.478057,0.726359,0.641271,0.571436
0.476575,0.727001,0.638643,0.571379
0.475098,0.727644,0.636024,0.571321
0.473625,0.728287,0.633417,0.571264
0.472157,0.728931,0.63082,0.571207
0.470694,0.729575,0.628234,0.57115
0.469235,0.73022,0.625659,0.571093
0.46778,0.730866,0.623094,0.571036
0.46633,0.731512,0.620539,0.570979
0.464885,0.732159,0.617995,0.570922
0.463444,0.732806,0.615462,0.570865
0.462007,0.733454,0.612938,0.570807
0.460575,0.734103,0.610426,0.57075
0.459148,0.734752,0.607923,0.570693
0.457724,0.735402,0.605431,0.570636
0.456306,0.736052,0.602949,0.570579
0.454891,0.736703,0.600477,0.570522
0.453481,0.737354,0.598015,0.570465
0.452075,0.738006,0.595564,0.570408
0.450674,0.738659,0.593122,0.570351
0.449277,0.739312,0.590691,0.570294
0.447885,0.739965,0.588269,0.570237
0.446496,0.74062,0.585857,0.57018
0.445112,0.741274,0.583456,0.570123
0.443733,0.74193,0.581064,0.570066
0.442357,0.742586,0.578681,0.570009
0.440986,0.743242,0.576309,0.569952
0.439619,0.7439,0.573946,0.569895
0.438256,0.744557,0.571594,0.569838
0.436898,0.745216,0.56925,0.569781
0.435544,0.745875,0.566917,0.569724
0.434194,0.746534,0.564592,0.569667
0.432848,0.747194,0.562278,0.56961
0.431506,0.747855,0.559973,0.569553
0.431463,0.747768,0.559917,0.569496
0.43142,0.747682,0.576657,0.569439
0.431161,0.747595,0.593897,0.569382
0.430902,0.747509,0.611653,0.569325
0.430644,0.747422,0.629939,0.569268
0.430385,0.747336,0.648772,0.569211
0.430127,0.747249,0.668169,0.569154
0.429869,0.747163,0.688145,0.569098
0.429611,0.747076,0.708718,0.569041
0.429353,0.74699,0.729907,0.568984
0.429096,0.746903,0.729834,0.568927
0.428838,0.746817,0.729761,0.56887
0.428581,0.746731,0.729688,0.568813
0.428324,0.746644,0.729615,0.568756
0.428067,0.746558,0.729542,0.568699
0.42781,0.746471,0.729469,0.568642
0.427554,0.746385,0.729396,0.568586
0.427297,0.746299,0.729323,0.568529
0.427041,0.746212,0.72925,0.568472
0.426784,0.746126,0.729177,0.568415
0.426528,0.74604,0.729105,0.568358
0.426273,0.745953,0.729032,0.568301
0.426017,0.745867,0.728959,0.568244
0.425761,0.745781,0.728886,0.568188
0.425506,0.745694,0.728813,0.568131
0.42525,0.745608,0.72874,0.568074
0.424995,0.745522,0.728667,0.568017
0.42474,0.745436,0.728594,0.56796
0.424486,0.745349,0.728521,0.567904
0.424231,0.745263,0.728449,0.567847
0.423976,0.745177,0.728376,0.56779
0.423722,0.745091,0.728303,0.567733
0.423468,0.745004,0.72823,0.567676
0.423214,0.744918,0.728157,0.56762
0.42296,0.744832,0.728084,0.567563
0.422706,0.744746,0.728012,0.567506
0.422452,0.74466,0.727939,0.567449
0.422199,0.744574,0.727866,0.567393
0.421946,0.744487,0.727793,0.567336
0.421693,0.744401,0.72772,0.567279
