energy,productivity,fun,hunger
0.745129,0.439471,0.863675,0.677354
0.745054,0.439434,0.889497,0.677286
0.744607,0.439397,0.889408,0.677218
0.74416,0.43936,0.889319,0.67715
0.743714,0.439323,0.88923,0.677083
0.743268,0.439286,0.889141,0.677015
0.742822,0.43925,0.889052,0.676947
0.742376,0.439213,0.888963,0.67688
0.741931,0.439176,0.888874,0.676812
0.741486,0.439139,0.888785,0.676744
0.741041,0.439102,0.888697,0.676676
0.740596,0.439065,0.888608,0.676609
0.740152,0.439028,0.888519,0.676541
0.739708,0.438991,0.88843,0.676473
0.739264,0.438955,0.888341,0.676406
0.738821,0.438918,0.888252,0.676338
0.738377,0.438881,0.888163,0.676271
0.737934,0.438844,0.888075,0.676203
0.737492,0.438807,0.887986,0.676135
0.737049,0.43877,0.887897,0.676068
0.736607,0.438733,0.887808,0.676
0.736165,0.438697,0.887719,0.675933
0.735723,0.43866,0.887631,0.675865
0.735282,0.438623,0.887542,0.675797
0.734841,0.438586,0.887453,0.67573
0.7344,0.438549,0.887364,0.675662
0.733959,0.438513,0.887276,0.675595
0.733519,0.438476,0.887187,0.675527
0.733079,0.438439,0.887098,0.675459
0.732639,0.438402,0.88701,0.675392
0.7322,0.438365,0.886921,0.675324
0.73176,0.438328,0.886832,0.675257
0.731321,0.438292,0.886743,0.675189
0.730882,0.438255,0.886655,0.675122
0.730444,0.438218,0.886566,0.675054
0.730006,0.438181,0.886477,0.674987
0.729568,0.438144,0.886389,0.674919
0.729495,0.438108,0.8863,0.674852
0.729422,0.438071,0.912798,0.674784
0.728984,0.438034,0.912707,0.674717
0.728547,0.437997,0.912615,0.674649
0.72811,0.437961,0.912524,0.674582
0.727673,0.437924,0.912433,0.674514
0.727236,0.437887,0.912342,0.674447
0.7268,0.43785,0.91225,0.67438
0.726364,0.437814,0.912159,0.674312
0.725928,0.437777,0.912068,0.674245
0.725493,0.43774,0.911977,0.674177
0.725058,0.437703,0.911886,0.67411
0.724623,0.437667,0.911794,0.674042
0.724188,0.43763,0.911703,0.673975
0.723753,0.437593,0.911612,0.673908
0.723319,0.437556,0.911521,0.67384
0.722885,0.43752,0.91143,0.673773
0.722451,0.437483,0.911339,0.673705
0.722018,0.437446,0.911247,0.673638
0.721585,0.437409,0.911156,0.673571
0.721152,0.437373,0.911065,0.673503
0.720719,0.437336,0.910974,0.673436
0.720287,0.437299,0.910883,0.673369
0.719855,0.437262,0.910792,0.673301
0.719423,0.437226,0.910701,0.673234
0.718991,0.437189,0.91061,0.673167
0.71856,0.437152,0.910519,0.673099
0.718129,0.437116,0.910428,0.673032
0.717698,0.437079,0.910337,0.672965
0.717267,0.437042,0.910246,0.672897
0.716837,0.437006,0.910155,0.67283
0.716407,0.436969,0.910064,0.672763
0.715977,0.436932,0.909972,0.672696
0.715548,0.436895,0.909881,0.672628
0.715118,0.436859,0.909791,0.672561
0.714689,0.436822,0.9097,0.672494
0.71426,0.436785,0.909609,0.672427
0.713832,0.436749,0.909518,0.672359
0.713404,0.436712,0.909427,0.672292
0.712976,0.436675,0.909336,0.672225
0.712548,0.436639,0.909245,0.672158
0.712477,0.436602,0.909154,0.67209
0.712405,0.436565,0.936335,0.672023
0.711978,0.436529,0.936241,0.671956
0.711551,0.436492,0.936148,0.671889
0.711124,0.436456,0.936054,0.671822
0.710697,0.436419,0.93596,0.671754
0.710271,0.436382,0.935867,0.671687
0.709845,0.436346,0.935773,0.67162
0.709419,0.436309,0.93568,0.671553
0.708993,0.436272,0.935586,0.671486
0.708568,0.436236,0.935492,0.671419
0.708143,0.436199,0.935399,0.671352
0.707718,0.436162,0.935305,0.671284
0.707293,0.436126,0.935212,0.671217
0.706869,0.436089,0.935118,0.67115
0.706445,0.436053,0.935025,0.671083
0.706021,0.436016,0.934931,0.671016
0.705598,0.435979,0.934838,0.670949
0.705174,0.435943,0.934744,0.670882
0.704751,0.435906,0.934651,0.670815
0.704328,0.43587,0.934557,0.670748
0.703906,0.435833,0.934464,0.67068
0.703484,0.435796,0.93437,0.670613
0.703061,0.43576,0.934277,0.670546
0.70264,0.435723,0.934184,0.670479
0.702218,0.435687,0.93409,0.670412
0.701797,0.43565,0.933997,0.670345
0.701376,0.435613,0.933903,0.670278
0.700955,0.435577,0.93381,0.670211
0.700534,0.43554,0.933717,0.670144
0.700114,0.435504,0.933623,0.670077
0.699694,0.435467,0.93353,0.67001
0.699274,0.435431,0.933437,0.669943
0.698855,0.435394,0.933343,0.669876
0.698436,0.435358,0.93325,0.669809
0.698017,0.435321,0.933157,0.669742
0.697598,0.435284,0.933063,0.669675
0.697179,0.435248,0.93297,0.669608
0.696761,0.435211,0.932877,0.669541
0.696343,0.435175,0.932783,0.669474
0.695925,0.435138,0.93269,0.669407
0.695508,0.435102,0.932597,0.66934
0.69509,0.435065,0.932504,0.669273
0.694673,0.435029,0.93241,0.669207
0.694257,0.434992,0.932317,0.66914
0.69384,0.434956,0.932224,0.669073
0.693424,0.434919,0.932131,0.669006
0.693008,0.434883,0.932037,0.668939
0.692592,0.434846,0.931944,0.668872
0.692176,0.43481,0.931851,0.668805
0.691761,0.434773,0.931758,0.668738
0.691346,0.434737,0.931665,0.668671
0.690931,0.4347,0.931571,0.668604
0.690517,0.434664,0.931478,0.668538
0.690103,0.434627,0.931385,0.668471
0.689689,0.434591,0.931292,0.668404
0.68962,0.434554,0.931199,0.668337
0.689551,0.434518,0.959039,0.66827
0.689137,0.434481,0.958943,0.668203
0.688724,0.434445,0.958847,0.668137
0.68831,0.434408,0.958751,0.66807
0.687897,0.434372,0.958655,0.668003
0.687485,0.434335,0.958559,0.667936
0.687072,0.434299,0.958464,0.667869
0.68666,0.434262,0.958368,0.667803
0.686248,0.434226,0.958272,0.667736
0.685836,0.434189,0.958176,0.667669
0.685425,0.434153,0.95808,0.667602
0.685014,0.434116,0.957984,0.667536
0.684603,0.43408,0.957889,0.667469
0.684192,0.434044,0.957793,0.667402
0.683781,0.434007,0.957697,0.667335
0.683371,0.433971,0.957601,0.667269
0.682961,0.433934,0.957506,0.667202
0.682551,0.433898,0.95741,0.667135
0.682142,0.433861,0.957314,0.667068
0.682074,0.433825,0.957218,0.667002
0.682006,0.433789,0.985836,0.666935
0.681596,0.433752,0.985738,0.666868
0.681187,0.433716,0.985639,0.666802
0.680779,0.433679,0.985541,0.666735
0.68037,0.433643,0.985442,0.666668
0.679962,0.433606,0.985344,0.666602
0.679554,0.43357,0.985245,0.666535
0.679147,0.433534,0.985146,0.666468
0.678739,0.433497,0.985048,0.666402
0.678332,0.433461,0.984949,0.666335
0.677925,0.433424,0.984851,0.666268
0.677518,0.433388,0.984752,0.666202
0.677112,0.433352,0.984654,0.666135
0.676705,0.433315,0.984556,0.666068
0.676299,0.433279,0.984457,0.666002
0.675894,0.433243,0.984359,0.665935
0.675488,0.433206,0.98426,0.665869
0.675083,0.43317,0.984162,0.665802
0.674678,0.433133,0.984063,0.665736
0.674273,0.433097,0.983965,0.665669
0.673869,0.433061,0.983867,0.665602
0.673464,0.433024,0.983768,0.665536
0.67306,0.432988,0.98367,0.665469
0.672657,0.432952,0.983571,0.665403
0.672253,0.432915,0.983473,0.665336
0.67185,0.432879,0.983375,0.66527
0.671447,0.432843,0.983276,0.665203
0.671044,0.432806,0.983178,0.665137
0.670641,0.43277,0.98308,0.66507
0.670239,0.432734,0.982981,0.665004
0.669837,0.432697,0.982883,0.664937
0.669435,0.432661,0.982785,0.664871
0.669033,0.432625,0.982687,0.664804
0.668632,0.432588,0.982588,0.664738
0.668231,0.432552,0.98249,0.664671
0.66783,0.432516,0.982392,0.664605
0.667429,0.432479,0.982294,0.664538
0.667029,0.432443,0.982195,0.664472
0.666628,0.432407,0.982097,0.664405
0.666229,0.43237,0.981999,0.664339
0.665829,0.432334,0.981901,0.664272
0.665429,0.432298,0.981802,0.664206
0.66503,0.432261,0.981704,0.66414
0.664631,0.432225,0.981606,0.664073
0.664232,0.432189,0.981508,0.664007
0.664166,0.432153,0.98141,0.66394
0.6641,0.432116,1,0.663874
0.663701,0.43208,0.9999,0.663808
0.663303,0.432044,0.9998,0.663741
0.662905,0.432007,0.9997,0.663675
0.662507,0.431971,0.9996,0.663608
0.66211,0.431935,0.9995,0.663542
0.661713,0.431899,0.9994,0.663476
0.661316,0.431862,0.9993,0.663409
0.660919,0.431826,0.9992,0.663343
0.660522,0.43179,0.9991,0.663277
0.660126,0.431754,0.999,0.66321
0.65973,0.431717,0.998901,0.663144
0.659334,0.431681,0.998801,0.663078
0.658939,0.431645,0.998701,0.663011
0.658873,0.431609,0.998601,0.662945
0.658807,0.431572,1,0.662879
0.658412,0.431536,0.9999,0.662813
0.658017,0.4315,0.9998,0.662746
0.657622,0.431464,0.9997,0.66268
0.657227,0.431428,0.9996,0.662614
0.656833,0.431391,0.9995,0.662547
0.656439,0.431355,0.9994,0.662481
0.656045,0.431319,0.9993,0.662415
0.655651,0.431283,0.9992,0.662349
0.655258,0.431246,0.9991,0.662282
0.654865,0.43121,0.999,0.662216
0.654472,0.431174,0.998901,0.66215
0.654079,0.431138,0.998801,0.662084
0.653687,0.431102,0.998701,0.662018
0.653295,0.431065,0.998601,0.661951
0.652903,0.431029,0.998501,0.661885
0.652511,0.430993,0.998401,0.661819
0.65212,0.430957,0.998301,0.661753
0.651728,0.430921,0.998202,0.661687
0.651337,0.430885,0.998102,0.661621
0.650947,0.430848,0.998002,0.661554
0.650556,0.430812,0.997902,0.661488
0.650166,0.430776,0.997802,0.661422
0.649776,0.43074,0.997703,0.661356
0.649386,0.430704,0.997603,0.66129
0.648996,0.430667,0.997503,0.661224
0.648607,0.430631,0.997403,0.661158
0.648218,0.430595,0.997304,0.661091
0.647829,0.430559,0.997204,0.661025
0.64744,0.430523,0.997104,0.660959
0.647052,0.430487,0.997004,0.660893
0.646664,0.430451,0.996905,0.660827
0.646276,0.430414,0.996805,0.660761
0.645888,0.430378,0.996705,0.660695
0.6455,0.430342,0.996606,0.660629
0.645113,0.430306,0.996506,0.660563
0.644726,0.43027,0.996406,0.660497
0.644339,0.430234,0.996307,0.660431
0.643953,0.430198,0.996207,0.660365
0.643888,0.430162,0.996107,0.660299
0.643824,0.430125,1,0.660233
0.643438,0.430089,0.9999,0.660166
0.643052,0.430053,0.9998,0.6601
0.642666,0.430017,0.9997,0.660034
0.64228,0.429981,0.9996,0.659968
0.641895,0.429945,0.9995,0.659902
0.64151,0.429909,0.9994,0.659836
0.641125,0.429873,0.9993,0.65977
0.64074,0.429837,0.9992,0.659704
0.640356,0.429801,0.9991,0.659639
0.639972,0.429764,0.999,0.659573
0.639588,0.429728,0.998901,0.659507
0.639204,0.429692,0.998801,0.659441
0.638821,0.429656,0.998701,0.659375
0.638437,0.42962,0.998601,0.659309
0.638054,0.429584,0.998501,0.659243
0.637672,0.429548,0.998401,0.659177
0.637289,0.429512,0.998301,0.659111
0.637225,0.429476,0.998202,0.659045
0.637162,0.42944,1,0.658979
0.636779,0.429404,0.9999,0.658913
0.636397,0.429368,0.9998,0.658847
0.636015,0.429332,0.9997,0.658782
0.635634,0.429296,0.9996,0.658716
0.635252,0.42926,0.9995,0.65865
0.634871,0.429224,0.9994,0.658584
0.63449,0.429187,0.9993,0.658518
0.63411,0.429151,0.9992,0.658452
0.633729,0.429115,0.9991,0.658386
0.633349,0.429079,0.999,0.658321
0.632969,0.429043,0.998901,0.658255
0.632589,0.429007,0.998801,0.658189
0.63221,0.428971,0.998701,0.658123
0.631831,0.428935,0.998601,0.658057
0.631452,0.428899,0.998501,0.657991
0.631073,0.428863,0.998401,0.657926
0.630694,0.428827,0.998301,0.65786
0.630316,0.428791,0.998202,0.657794
0.629938,0.428755,0.998102,0.657728
0.62956,0.428719,0.998002,0.657662
0.629182,0.428683,0.997902,0.657597
0.628804,0.428647,0.997802,0.657531
0.628427,0.428611,0.997703,0.657465
0.62805,0.428575,0.997603,0.657399
0.627673,0.428539,0.997503,0.657334
0.627297,0.428503,0.997403,0.657268
0.62692,0.428467,0.997304,0.657202
0.626544,0.428431,0.997204,0.657137
0.626168,0.428395,0.997104,0.657071
0.625793,0.428359,0.997004,0.657005
0.625417,0.428323,0.996905,0.656939
0.625355,0.428288,0.996805,0.656874
0.625292,0.428252,1,0.656808
0.624917,0.428216,0.9999,0.656742
0.624542,0.42818,0.9998,0.656677
0.624168,0.428144,0.9997,0.656611
0.623793,0.428108,0.9996,0.656545
0.623419,0.428072,0.9995,0.65648
0.623045,0.428036,0.9994,0.656414
0.622671,0.428,0.9993,0.656348
0.622297,0.427964,0.9992,0.656283
0.621924,0.427928,0.9991,0.656217
0.621551,0.427892,0.999,0.656152
0.621178,0.427856,0.998901,0.656086
0.620805,0.42782,0.998801,0.65602
0.620433,0.427784,0.998701,0.655955
0.620061,0.427748,0.998601,0.655889
0.619689,0.427713,0.998501,0.655824
0.619317,0.427677,0.998401,0.655758
0.619255,0.427641,0.998301,0.655692
0.619193,0.427605,1,0.655627
0.618822,0.427569,0.9999,0.655561
0.61845,0.427533,0.9998,0.655496
0.618079,0.427497,0.9997,0.65543
0.617708,0.427461,0.9996,0.655365
0.617338,0.427425,0.9995,0.655299
0.616967,0.427389,0.9994,0.655234
0.616597,0.427354,0.9993,0.655168
0.616227,0.427318,0.9992,0.655102
0.615858,0.427282,0.9991,0.655037
0.615488,0.427246,0.999,0.654971
0.615119,0.42721,0.998901,0.654906
0.61475,0.427174,0.998801,0.65484
0.614381,0.427138,0.998701,0.654775
0.614012,0.427102,0.998601,0.65471
0.613644,0.427067,0.998501,0.654644
0.613276,0.427031,0.998401,0.654579
0.612908,0.426995,0.998301,0.654513
0.61254,0.426959,0.998202,0.654448
0.612173,0.426923,0.998102,0.654382
0.611806,0.426887,0.998002,0.654317
0.611438,0.426852,0.997902,0.654251
0.611072,0.426816,0.997802,0.654186
0.610705,0.42678,0.997703,0.65412
0.610339,0.426744,0.997603,0.654055
0.609972,0.426708,0.997503,0.65399
0.609607,0.426672,0.997403,0.653924
0.609241,0.426637,0.997304,0.653859
0.608875,0.426601,0.997204,0.653794
0.60851,0.426565,0.997104,0.653728
0.608145,0.426529,0.997004,0.653663
0.60778,0.426493,0.996905,0.653597
0.607415,0.426457,0.996805,0.653532
0.607355,0.426422,0.996705,0.653467
0.607294,0.426386,1,0.653401
0.60693,0.42635,0.9999,0.653336
0.606565,0.426314,0.9998,0.653271
0.606202,0.426278,0.9997,0.653205
0.605838,0.426243,0.9996,0.65314
0.605474,0.426207,0.9995,0.653075
0.605111,0.426171,0.9994,0.653009
0.604748,0.426135,0.9993,0.652944
0.604385,0.4261,0.9992,0.652879
0.604023,0.426064,0.9991,0.652813
0.60366,0.426028,0.999,0.652748
0.603298,0.425992,0.998901,0.652683
0.602936,0.425956,0.998801,0.652618
0.602574,0.425921,0.998701,0.652552
0.602213,0.425885,0.998601,0.652487
0.601852,0.425849,0.998501,0.652422
0.601491,0.425813,0.998401,0.652357
0.60143,0.425778,0.998301,0.652291
0.60137,0.425742,1,0.652226
0.601009,0.425706,0.9999,0.652161
0.600649,0.42567,0.9998,0.652096
0.600289,0.425635,0.9997,0.652031
0.599928,0.425599,0.9996,0.651965
0.599568,0.425563,0.9995,0.6519
0.599209,0.425528,0.9994,0.651835
0.598849,0.425492,0.9993,0.65177
0.59849,0.425456,0.9992,0.651705
0.598131,0.42542,0.9991,0.651639
0.597772,0.425385,0.999,0.651574
0.597413,0.425349,0.998901,0.651509
0.597055,0.425313,0.998801,0.651444
0.596697,0.425277,0.998701,0.651379
0.596339,0.425242,0.998601,0.651314
0.595981,0.425206,0.998501,0.651249
0.595623,0.42517,0.998401,0.651183
0.595266,0.425135,0.998301,0.651118
0.594909,0.425099,0.998202,0.651053
0.594552,0.425063,0.998102,0.650988
0.594195,0.425028,0.998002,0.650923
0.593839,0.424992,0.997902,0.650858
0.593483,0.424956,0.997802,0.650793
0.593127,0.424921,0.997703,0.650728
0.592771,0.424885,0.997603,0.650663
0.592415,0.424849,0.997503,0.650598
0.59206,0.424814,0.997403,0.650533
0.591704,0.424778,0.997304,0.650467
0.591349,0.424742,0.997204,0.650402
0.590995,0.424707,0.997104,0.650337
0.59064,0.424671,0.997004,0.650272
0.590286,0.424635,0.996905,0.650207
0.590227,0.4246,0.996805,0.650142
0.590168,0.424564,1,0.650077
0.589814,0.424528,0.9999,0.650012
0.58946,0.424493,0.9998,0.649947
0.589106,0.424457,0.9997,0.649882
0.588753,0.424421,0.9996,0.649817
0.588399,0.424386,0.9995,0.649752
0.588046,0.42435,0.9994,0.649687
0.587694,0.424314,0.9993,0.649622
0.587341,0.424279,0.9992,0.649557
0.586989,0.424243,0.9991,0.649492
0.58693,0.424208,0.999,0.649428
0.586871,0.424172,1,0.649363
0.586519,0.424136,0.9999,0.649298
0.586167,0.424101,0.9998,0.649233
0.585816,0.424065,0.9997,0.649168
0.585464,0.42403,0.9996,0.649103
0.585113,0.423994,0.9995,0.649038
0.584762,0.423958,0.9994,0.648973
0.584411,0.423923,0.9993,0.648908
0.58406,0.423887,0.9992,0.648843
0.58371,0.423852,0.9991,0.648778
0.58336,0.423816,0.999,0.648713
0.58301,0.42378,0.998901,0.648649
0.58266,0.423745,0.998801,0.648584
0.582311,0.423709,0.998701,0.648519
0.581961,0.423674,0.998601,0.648454
0.581612,0.423638,0.998501,0.648389
0.581263,0.423603,0.998401,0.648324
0.580914,0.423567,0.998301,0.64826
0.580566,0.423531,0.998202,0.648195
0.580218,0.423496,0.998102,0.64813
0.579869,0.42346,0.998002,0.648065
0.579811,0.423425,0.997902,0.648
0.579753,0.423389,1,0.647935
0.579406,0.423354,0.9999,0.647871
0.579058,0.423318,0.9998,0.647806
0.578711,0.423283,0.9997,0.647741
0.578363,0.423247,0.9996,0.647676
0.578016,0.423211,0.9995,0.647612
0.57767,0.423176,0.9994,0.647547
0.577323,0.42314,0.9993,0.647482
0.576977,0.423105,0.9992,0.647417
0.576631,0.423069,0.9991,0.647353
0.576285,0.423034,0.999,0.647288
0.575939,0.422998,0.998901,0.647223
0.575593,0.422963,0.998801,0.647158
0.575248,0.422927,0.998701,0.647094
0.574903,0.422892,0.998601,0.647029
0.574558,0.422856,0.998501,0.646964
0.574213,0.422821,0.998401,0.6469
0.573869,0.422785,0.998301,0.646835
0.573524,0.42275,0.998202,0.64677
0.57318,0.422714,0.998102,0.646705
0.573123,0.422679,0.998002,0.646641
0.573066,0.422643,1,0.646576
0.572722,0.422608,0.9999,0.646512
0.572378,0.422572,0.9998,0.646447
0.572035,0.422537,0.9997,0.646382
0.571692,0.422501,0.9996,0.646318
0.571349,0.422466,0.9995,0.646253
0.571006,0.42243,0.9994,0.646188
0.570663,0.422395,0.9993,0.646124
0.570321,0.42236,0.9992,0.646059
0.569979,0.422324,0.9991,0.645994
0.569637,0.422289,0.999,0.64593
0.569295,0.422253,0.998901,0.645865
0.568954,0.422218,0.998801,0.645801
0.568612,0.422182,0.998701,0.645736
0.568271,0.422147,0.998601,0.645672
0.56793,0.422111,0.998501,0.645607
0.567589,0.422076,0.998401,0.645542
0.567249,0.42204,0.998301,0.645478
0.566909,0.422005,0.998202,0.645413
0.566569,0.42197,0.998102,0.645349
0.566229,0.421934,0.998002,0.645284
0.566172,0.421899,0.997902,0.64522
0.566115,0.421863,1,0.645155
0.565776,0.421828,0.9999,0.645091
0.565436,0.421792,0.9998,0.645026
0.565097,0.421757,0.9997,0.644962
0.564758,0.421722,0.9996,0.644897
0.564419,0.421686,0.9995,0.644833
0.564081,0.421651,0.9994,0.644768
0.563742,0.421615,0.9993,0.644704
0.563404,0.42158,0.9992,0.644639
0.563066,0.421545,0.9991,0.644575
0.562728,0.421509,0.999,0.64451
0.562391,0.421474,0.998901,0.644446
0.562053,0.421438,0.998801,0.644381
0.561716,0.421403,0.998701,0.644317
0.561379,0.421368,0.998601,0.644253
0.561042,0.421332,0.998501,0.644188
0.560705,0.421297,0.998401,0.644124
0.560369,0.421262,0.998301,0.644059
0.560033,0.421226,0.998202,0.643995
0.559697,0.421191,0.998102,0.64393
0.559361,0.421155,0.998002,0.643866
0.559026,0.42112,0.997902,0.643802
0.55869,0.421085,0.997802,0.643737
0.558355,0.421049,0.997703,0.643673
0.55802,0.421014,0.997603,0.643609
0.557685,0.420979,0.997503,0.643544
0.557351,0.420943,0.997403,0.64348
0.557016,0.420908,0.997304,0.643416
0.556682,0.420873,0.997204,0.643351
0.556348,0.420837,0.997104,0.643287
0.556014,0.420802,0.997004,0.643223
0.555681,0.420767,0.996905,0.643158
0.555347,0.420731,0.996805,0.643094
0.555014,0.420696,0.996705,0.64303
0.554681,0.420661,0.996606,0.642965
0.554348,0.420625,0.996506,0.642901
0.554016,0.42059,0.996406,0.642837
0.553683,0.420555,0.996307,0.642772
0.553351,0.420519,0.996207,0.642708
0.553019,0.420484,0.996107,0.642644
0.552687,0.420449,0.996008,0.64258
0.552356,0.420414,0.995908,0.642515
0.552024,0.420378,0.995809,0.642451
0.551693,0.420343,0.995709,0.642387
0.551362,0.420308,0.995609,0.642323
0.551032,0.420272,0.99551,0.642258
0.550701,0.420237,0.99541,0.642194
0.550371,0.420202,0.995311,0.64213
0.55004,0.420167,0.995211,0.642066
0.54971,0.420131,0.995112,0.642002
0.549381,0.420096,0.995012,0.641937
0.549051,0.420061,0.994913,0.641873
0.548722,0.420025,0.994813,0.641809
0.548667,0.41999,0.994714,0.641745
0.548612,0.419955,1,0.641681
0.548283,0.41992,0.9999,0.641616
0.547954,0.419884,0.9998,0.641552
0.547625,0.419849,0.9997,0.641488
0.547296,0.419814,0.9996,0.641424
0.546968,0.419779,0.9995,0.64136
0.54664,0.419743,0.9994,0.641296
0.546312,0.419708,0.9993,0.641232
0.545984,0.419673,0.9992,0.641167
0.545657,0.419638,0.9991,0.641103
0.545329,0.419602,0.999,0.641039
0.545002,0.419567,0.998901,0.640975
0.544948,0.419532,0.998801,0.640911
0.544893,0.419497,1,0.640847
0.544566,0.419462,0.9999,0.640783
0.54424,0.419426,0.9998,0.640719
0.543913,0.419391,0.9997,0.640655
0.543587,0.419356,0.9996,0.640591
0.543261,0.419321,0.9995,0.640527
0.542935,0.419285,0.9994,0.640462
0.542609,0.41925,0.9993,0.640398
0.542283,0.419215,0.9992,0.640334
0.541958,0.41918,0.9991,0.64027
0.541633,0.419145,0.999,0.640206
0.541308,0.41911,0.998901,0.640142
0.540983,0.419074,0.998801,0.640078
0.540659,0.419039,0.998701,0.640014
0.540334,0.419004,0.998601,0.63995
0.54001,0.418969,0.998501,0.639886
0.539686,0.418934,0.998401,0.639822
0.539362,0.418898,0.998301,0.639758
