energy,productivity,fun,hunger
0.74784,0.788169,0.849308,0.826266
0.747765,0.788054,0.849223,0.826184
0.74769,0.787938,0.849138,0.826101
0.747615,0.787822,0.849053,0.826019
0.747541,0.787707,0.848968,0.825936
0.747466,0.787591,0.848883,0.825853
0.747391,0.787476,0.848799,0.825771
0.747316,0.78736,0.848714,0.825688
0.747242,0.787245,0.848629,0.825606
0.747167,0.787129,0.848544,0.825523
0.747092,0.787014,0.848459,0.82544
0.747017,0.786898,0.848374,0.825358
0.746943,0.786783,0.848289,0.825275
0.746868,0.786668,0.848205,0.825193
0.746793,0.786552,0.84812,0.82511
0.746719,0.786437,0.848035,0.825028
0.746644,0.786322,0.84795,0.824945
0.746569,0.786206,0.847865,0.824863
0.746495,0.786091,0.847781,0.82478
0.74642,0.785976,0.847696,0.824698
0.746345,0.78586,0.847611,0.824615
0.746271,0.785745,0.847526,0.824533
0.746196,0.78563,0.847442,0.824451
0.746121,0.785515,0.847357,0.824368
0.746047,0.785399,0.847272,0.824286
0.745972,0.785284,0.847187,0.824203
0.745898,0.785169,0.847103,0.824121
0.745823,0.785054,0.847018,0.824038
0.745748,0.784939,0.846933,0.823956
0.745674,0.784824,0.846849,0.823874
0.745599,0.784708,0.846764,0.823791
0.745525,0.784593,0.846679,0.823709
0.74545,0.784478,0.846594,0.823626
0.745376,0.784363,0.84651,0.823544
0.745301,0.784248,0.846425,0.823462
0.745227,0.784133,0.846341,0.823379
0.745152,0.784018,0.846256,0.823297
0.745078,0.783903,0.846171,0.823215
0.745003,0.783788,0.846087,0.823132
0.744929,0.783673,0.846002,0.82305
0.744854,0.783558,0.845917,0.822968
0.74478,0.783443,0.845833,0.822885
0.744705,0.783328,0.845748,0.822803
0.744631,0.783213,0.845664,0.822721
0.744556,0.783099,0.845579,0.822639
0.744482,0.782984,0.845495,0.822556
0.744407,0.782869,0.84541,0.822474
0.744333,0.782754,0.845325,0.822392
0.744258,0.782639,0.845241,0.82231
0.744184,0.782524,0.845156,0.822227
0.74411,0.78241,0.845072,0.822145
0.744035,0.782295,0.844987,0.822063
0.743961,0.78218,0.844903,0.821981
0.743886,0.782065,0.844818,0.821899
0.743812,0.781951,0.844734,0.821816
0.743738,0.781836,0.844649,0.821734
0.743663,0.781721,0.844565,0.821652
0.743589,0.781607,0.844481,0.82157
0.743514,0.781492,0.844396,0.821488
0.74344,0.781377,0.844312,0.821406
0.743366,0.781263,0.844227,0.821323
0.743291,0.781148,0.844143,0.821241
0.743217,0.781034,0.844058,0.821159
0.743143,0.780919,0.843974,0.821077
0.743068,0.780805,0.84389,0.820995
0.742994,0.78069,0.843805,0.820913
0.74292,0.780576,0.843721,0.820831
0.742846,0.780461,0.843636,0.820749
0.742771,0.780347,0.843552,0.820667
0.742697,0.780232,0.843468,0.820584
0.742623,0.780118,0.843383,0.820502
0.742549,0.780003,0.843299,0.82042
0.742474,0.779889,0.843215,0.820338
0.7424,0.779774,0.84313,0.820256
0.742326,0.77966,0.843046,0.820174
0.742252,0.779546,0.842962,0.820092
0.742177,0.779431,0.842877,0.82001
0.742103,0.779317,0.842793,0.819928
0.742029,0.779203,0.842709,0.819846
0.741955,0.779088,0.842625,0.819764
0.74188,0.778974,0.84254,0.819682
0.741806,0.77886,0.842456,0.8196
0.741732,0.778746,0.842372,0.819518
0.741658,0.778631,0.842288,0.819436
0.741584,0.778517,0.842203,0.819354
0.74151,0.778403,0.842119,0.819273
0.741435,0.778289,0.842035,0.819191
0.741361,0.778175,0.841951,0.819109
0.741287,0.778061,0.841867,0.819027
0.741213,0.777946,0.841782,0.818945
0.741139,0.777832,0.841698,0.818863
0.741065,0.777718,0.841614,0.818781
0.740991,0.777604,0.84153,0.818699
0.740917,0.77749,0.841446,0.818617
0.740843,0.777376,0.841362,0.818535
0.740768,0.777262,0.841277,0.818454
0.740694,0.777148,0.841193,0.818372
0.74062,0.777034,0.841109,0.81829
0.740546,0.77692,0.841025,0.818208
0.740472,0.776806,0.840941,0.818126
0.740398,0.776692,0.840857,0.818044
0.740324,0.776578,0.840773,0.817963
0.74025,0.776464,0.840689,0.817881
0.740176,0.776351,0.840605,0.817799
0.740102,0.776237,0.840521,0.817717
0.740028,0.776123,0.840437,0.817636
0.739954,0.776009,0.840353,0.817554
0.73988,0.775895,0.840268,0.817472
0.739806,0.775781,0.840184,0.81739
0.739732,0.775668,0.8401,0.817309
0.739658,0.775554,0.840016,0.817227
0.739584,0.77544,0.839932,0.817145
0.73951,0.775326,0.839848,0.817063
0.739436,0.775213,0.839764,0.816982
0.739362,0.775099,0.83968,0.8169
0.739288,0.774985,0.839596,0.816818
0.739214,0.774871,0.839513,0.816737
0.73914,0.774758,0.839429,0.816655
0.739067,0.774644,0.839345,0.816573
0.738993,0.774531,0.839261,0.816492
0.738919,0.774417,0.839177,0.81641
0.738845,0.774303,0.839093,0.816328
0.738771,0.77419,0.839009,0.816247
0.738697,0.774076,0.838925,0.816165
0.738623,0.773963,0.838841,0.816083
0.738549,0.773849,0.838757,0.816002
0.738475,0.773736,0.838673,0.81592
0.738402,0.773622,0.83859,0.815839
0.738328,0.773509,0.838506,0.815757
0.738254,0.773395,0.838422,0.815675
0.73818,0.773282,0.838338,0.815594
0.738106,0.773168,0.838254,0.815512
0.738033,0.773055,0.83817,0.815431
0.737959,0.772942,0.838086,0.815349
0.737885,0.772828,0.838003,0.815268
0.737811,0.772715,0.837919,0.815186
0.737737,0.772602,0.837835,0.815105
0.737664,0.772488,0.837751,0.815023
0.73759,0.772375,0.837668,0.814942
0.737516,0.772262,0.837584,0.81486
0.737442,0.772148,0.8375,0.814779
0.737369,0.772035,0.837416,0.814697
0.737295,0.771922,0.837333,0.814616
0.737221,0.771809,0.837249,0.814534
0.737147,0.771695,0.837165,0.814453
0.737074,0.771582,0.837081,0.814371
0.737,0.771469,0.836998,0.81429
0.736926,0.771356,0.836914,0.814209
0.736853,0.771243,0.83683,0.814127
0.736779,0.77113,0.836747,0.814046
0.736705,0.771017,0.836663,0.813964
0.736632,0.770903,0.836579,0.813883
0.736558,0.77079,0.836496,0.813801
0.736484,0.770677,0.836412,0.81372
0.736411,0.770564,0.836328,0.813639
0.736337,0.770451,0.836245,0.813557
0.736263,0.770338,0.836161,0.813476
0.73619,0.770225,0.836077,0.813395
0.736116,0.770112,0.835994,0.813313
0.736042,0.769999,0.83591,0.813232
0.735969,0.769886,0.835827,0.813151
0.735895,0.769774,0.835743,0.813069
0.735822,0.769661,0.835659,0.812988
0.735748,0.769548,0.835576,0.812907
0.735674,0.769435,0.835492,0.812825
0.735601,0.769322,0.835409,0.812744
0.735527,0.769209,0.835325,0.812663
0.735454,0.769096,0.835242,0.812582
0.73538,0.768984,0.835158,0.8125
0.735307,0.768871,0.835075,0.812419
0.735233,0.768758,0.834991,0.812338
0.73516,0.768645,0.834908,0.812257
0.735086,0.768532,0.834824,0.812175
0.735013,0.76842,0.834741,0.812094
0.734939,0.768307,0.834657,0.812013
0.734866,0.768194,0.834574,0.811932
0.734792,0.768082,0.83449,0.811851
0.734719,0.767969,0.834407,0.811769
0.734645,0.767856,0.834323,0.811688
0.734572,0.767744,0.83424,0.811607
0.734498,0.767631,0.834157,0.811526
0.734425,0.767519,0.834073,0.811445
0.734351,0.767406,0.83399,0.811364
0.734278,0.767293,0.833906,0.811282
0.734205,0.767181,0.833823,0.811201
0.734131,0.767068,0.83374,0.81112
0.734058,0.766956,0.833656,0.811039
0.733984,0.766843,0.833573,0.810958
0.733911,0.766731,0.833489,0.810877
0.733837,0.766618,0.833406,0.810796
0.733764,0.766506,0.833323,0.810715
0.733691,0.766393,0.833239,0.810634
0.733617,0.766281,0.833156,0.810553
0.733544,0.766169,0.833073,0.810472
0.733471,0.766056,0.832989,0.810391
0.733397,0.765944,0.832906,0.810309
0.733324,0.765832,0.832823,0.810228
0.733251,0.765719,0.83274,0.810147
0.733177,0.765607,0.832656,0.810066
0.733104,0.765495,0.832573,0.809985
0.733031,0.765382,0.83249,0.809904
0.732957,0.76527,0.832407,0.809823
0.732884,0.765158,0.832323,0.809742
0.732811,0.765046,0.83224,0.809661
0.732738,0.764933,0.832157,0.809581
0.732664,0.764821,0.832074,0.8095
0.732591,0.764709,0.83199,0.809419
0.732518,0.764597,0.831907,0.809338
0.732444,0.764485,0.831824,0.809257
0.732371,0.764373,0.831741,0.809176
0.732298,0.764261,0.831658,0.809095
0.732225,0.764148,0.831575,0.809014
0.732152,0.764036,0.831491,0.808933
0.732078,0.763924,0.831408,0.808852
0.732005,0.763812,0.831325,0.808771
0.731932,0.7637,0.831242,0.80869
0.731859,0.763588,0.831159,0.80861
0.731786,0.763476,0.831076,0.808529
0.731712,0.763364,0.830993,0.808448
0.731639,0.763252,0.83091,0.808367
0.731566,0.76314,0.830826,0.808286
0.731493,0.763028,0.830743,0.808205
0.73142,0.762916,0.83066,0.808124
0.731347,0.762805,0.830577,0.808044
0.731273,0.762693,0.830494,0.807963
0.7312,0.762581,0.830411,0.807882
0.731127,0.762469,0.830328,0.807801
0.731054,0.762357,0.830245,0.807721
0.730981,0.762245,0.830162,0.80764
0.730908,0.762133,0.830079,0.807559
0.730835,0.762022,0.829996,0.807478
0.730762,0.76191,0.829913,0.807397
0.730689,0.761798,0.82983,0.807317
0.730616,0.761686,0.829747,0.807236
0.730542,0.761575,0.829664,0.807155
0.730469,0.761463,0.829581,0.807075
0.730396,0.761351,0.829498,0.806994
0.730323,0.76124,0.829415,0.806913
0.73025,0.761128,0.829332,0.806832
0.730177,0.761016,0.829249,0.806752
0.730104,0.760905,0.829166,0.806671
0.730031,0.760793,0.829083,0.80659
0.729958,0.760682,0.829001,0.80651
0.729885,0.76057,0.828918,0.806429
0.729812,0.760458,0.828835,0.806348
0.729739,0.760347,0.828752,0.806268
0.729666,0.760235,0.828669,0.806187
0.729593,0.760124,0.828586,0.806107
0.72952,0.760012,0.828503,0.806026
0.729447,0.759901,0.82842,0.805945
0.729374,0.759789,0.828338,0.805865
0.729302,0.759678,0.828255,0.805784
0.729229,0.759567,0.828172,0.805704
0.729156,0.759455,0.828089,0.805623
0.729083,0.759344,0.828006,0.805542
0.72901,0.759232,0.827923,0.805462
0.728937,0.759121,0.827841,0.805381
0.728864,0.75901,0.827758,0.805301
0.728791,0.758898,0.827675,0.80522
0.728718,0.758787,0.827592,0.80514
0.728645,0.758676,0.82751,0.805059
0.728573,0.758564,0.827427,0.804979
0.7285,0.758453,0.827344,0.804898
0.728427,0.758342,0.827261,0.804818
0.728354,0.758231,0.827179,0.804737
0.728281,0.758119,0.827096,0.804657
0.728208,0.758008,0.827013,0.804576
0.728136,0.757897,0.82693,0.804496
0.728063,0.757786,0.826848,0.804415
0.72799,0.757675,0.826765,0.804335
0.727917,0.757564,0.826682,0.804255
0.727844,0.757453,0.8266,0.804174
0.727772,0.757341,0.826517,0.804094
0.727699,0.75723,0.826434,0.804013
0.727626,0.757119,0.826352,0.803933
0.727553,0.757008,0.826269,0.803853
0.72748,0.756897,0.826187,0.803772
0.727408,0.756786,0.826104,0.803692
0.727335,0.756675,0.826021,0.803611
0.727262,0.756564,0.825939,0.803531
0.72719,0.756453,0.825856,0.803451
0.727117,0.756342,0.825774,0.80337
0.727044,0.756231,0.825691,0.80329
0.726971,0.75612,0.825608,0.80321
0.726899,0.75601,0.825526,0.803129
0.726826,0.755899,0.825443,0.803049
0.726753,0.755788,0.825361,0.802969
0.726681,0.755677,0.825278,0.802888
0.726608,0.755566,0.825196,0.802808
0.726535,0.755455,0.825113,0.802728
0.726463,0.755344,0.825031,0.802648
0.72639,0.755234,0.824948,0.802567
0.726317,0.755123,0.824866,0.802487
0.726245,0.755012,0.824783,0.802407
0.726172,0.754901,0.824701,0.802327
0.7261,0.754791,0.824618,0.802246
0.726027,0.75468,0.824536,0.802166
0.725954,0.754569,0.824453,0.802086
0.725882,0.754459,0.824371,0.802006
0.725809,0.754348,0.824288,0.801926
0.725737,0.754237,0.824206,0.801845
0.725664,0.754127,0.824124,0.801765
0.725591,0.754016,0.824041,0.801685
0.725519,0.753905,0.823959,0.801605
0.725446,0.753795,0.823876,0.801525
0.725374,0.753684,0.823794,0.801444
0.725301,0.753574,0.823712,0.801364
0.725229,0.753463,0.823629,0.801284
0.725156,0.753353,0.823547,0.801204
0.725084,0.753242,0.823464,0.801124
0.725011,0.753132,0.823382,0.801044
0.724939,0.753021,0.8233,0.800964
0.724866,0.752911,0.823217,0.800884
0.724794,0.7528,0.823135,0.800804
0.724721,0.75269,0.823053,0.800723
0.724649,0.75258,0.822971,0.800643
0.724576,0.752469,0.822888,0.800563
0.724504,0.752359,0.822806,0.800483
0.724431,0.752248,0.822724,0.800403
0.724359,0.752138,0.822641,0.800323
0.724286,0.752028,0.822559,0.800243
0.724214,0.751917,0.822477,0.800163
0.724142,0.751807,0.822395,0.800083
0.724069,0.751697,0.822312,0.800003
0.723997,0.751587,0.82223,0.799923
0.723924,0.751476,0.822148,0.799843
0.723852,0.751366,0.822066,0.799763
0.72378,0.751256,0.821984,0.799683
0.723707,0.751146,0.821901,0.799603
0.723635,0.751036,0.821819,0.799523
0.723562,0.750925,0.821737,0.799443
0.72349,0.750815,0.821655,0.799363
0.723418,0.750705,0.821573,0.799283
0.723345,0.750595,0.82149,0.799203
0.723273,0.750485,0.821408,0.799124
0.723201,0.750375,0.821326,0.799044
0.723128,0.750265,0.821244,0.798964
0.723056,0.750155,0.821162,0.798884
0.722984,0.750045,0.82108,0.798804
0.722912,0.749935,0.820998,0.798724
0.722839,0.749825,0.820916,0.798644
0.722767,0.749715,0.820833,0.798564
0.722695,0.749605,0.820751,0.798484
0.722622,0.749495,0.820669,0.798405
0.72255,0.749385,0.820587,0.798325
0.722478,0.749275,0.820505,0.798245
0.722406,0.749165,0.820423,0.798165
0.722333,0.749055,0.820341,0.798085
0.722261,0.748945,0.820259,0.798006
0.722189,0.748836,0.820177,0.797926
0.722117,0.748726,0.820095,0.797846
0.722045,0.748616,0.820013,0.797766
0.721972,0.748506,0.819931,0.797686
0.7219,0.748396,0.819849,0.797607
0.721828,0.748286,0.819767,0.797527
0.721756,0.748177,0.819685,0.797447
0.721684,0.748067,0.819603,0.797367
0.721611,0.747957,0.819521,0.797288
0.721539,0.747848,0.819439,0.797208
0.721467,0.747738,0.819357,0.797128
0.721395,0.747628,0.819275,0.797048
0.721323,0.747519,0.819193,0.796969
0.721251,0.747409,0.819111,0.796889
0.721179,0.747299,0.81903,0.796809
0.721106,0.74719,0.818948,0.79673
0.721034,0.74708,0.818866,0.79665
0.720962,0.746971,0.818784,0.79657
0.72089,0.746861,0.818702,0.796491
0.720818,0.746751,0.81862,0.796411
0.720746,0.746642,0.818538,0.796331
0.720674,0.746532,0.818456,0.796252
0.720602,0.746423,0.818375,0.796172
0.72053,0.746313,0.818293,0.796092
0.720458,0.746204,0.818211,0.796013
0.720386,0.746094,0.818129,0.795933
0.720314,0.745985,0.818047,0.795854
0.720242,0.745876,0.817965,0.795774
0.72017,0.745766,0.817884,0.795695
0.720098,0.745657,0.817802,0.795615
0.720026,0.745547,0.81772,0.795535
0.719954,0.745438,0.817638,0.795456
0.719882,0.745329,0.817557,0.795376
0.71981,0.745219,0.817475,0.795297
0.719738,0.74511,0.817393,0.795217
0.719666,0.745001,0.817311,0.795138
0.719594,0.744892,0.81723,0.795058
0.719522,0.744782,0.817148,0.794979
0.71945,0.744673,0.817066,0.794899
0.719378,0.744564,0.816984,0.79482
0.719306,0.744455,0.816903,0.79474
0.719234,0.744345,0.816821,0.794661
0.719162,0.744236,0.816739,0.794581
0.71909,0.744127,0.816658,0.794502
0.719018,0.744018,0.816576,0.794422
0.718946,0.743909,0.816494,0.794343
0.718874,0.7438,0.816413,0.794263
0.718802,0.743691,0.816331,0.794184
0.718731,0.743582,0.816249,0.794105
0.718659,0.743472,0.816168,0.794025
0.718587,0.743363,0.816086,0.793946
0.718515,0.743254,0.816005,0.793866
0.718443,0.743145,0.815923,0.793787
0.718371,0.743036,0.815841,0.793708
0.718299,0.742927,0.81576,0.793628
0.718228,0.742818,0.815678,0.793549
0.718156,0.742709,0.815597,0.79347
0.718084,0.742601,0.815515,0.79339
0.718012,0.742492,0.815434,0.793311
0.71794,0.742383,0.815352,0.793232
0.717869,0.742274,0.81527,0.793152
0.717797,0.742165,0.815189,0.793073
0.717725,0.742056,0.815107,0.792994
0.717653,0.741947,0.815026,0.792914
0.717581,0.741838,0.814944,0.792835
0.71751,0.74173,0.814863,0.792756
0.717438,0.741621,0.814781,0.792676
0.717366,0.741512,0.8147,0.792597
0.717294,0.741403,0.814618,0.792518
0.717223,0.741295,0.814537,0.792439
0.717151,0.741186,0.814456,0.792359
0.717079,0.741077,0.814374,0.79228
0.717008,0.740968,0.814293,0.792201
0.716936,0.74086,0.814211,0.792122
0.716864,0.740751,0.81413,0.792043
0.716793,0.740642,0.814048,0.791963
0.716721,0.740534,0.813967,0.791884
0.716649,0.740425,0.813886,0.791805
0.716578,0.740317,0.813804,0.791726
0.716506,0.740208,0.813723,0.791647
0.716434,0.740099,0.813641,0.791567
0.716363,0.739991,0.81356,0.791488
0.716291,0.739882,0.813479,0.791409
0.716219,0.739774,0.813397,0.79133
0.716148,0.739665,0.813316,0.791251
0.716076,0.739557,0.813235,0.791172
0.716004,0.739448,0.813153,0.791093
0.715933,0.73934,0.813072,0.791014
0.715861,0.739231,0.812991,0.790934
0.71579,0.739123,0.81291,0.790855
0.715718,0.739015,0.812828,0.790776
0.715647,0.738906,0.812747,0.790697
0.715575,0.738798,0.812666,0.790618
0.715503,0.738689,0.812584,0.790539
0.715432,0.738581,0.812503,0.79046
0.71536,0.738473,0.812422,0.790381
0.715289,0.738364,0.812341,0.790302
0.715217,0.738256,0.812259,0.790223
0.715146,0.738148,0.812178,0.790144
0.715074,0.73804,0.812097,0.790065
0.715003,0.737931,0.812016,0.789986
0.714931,0.737823,0.811935,0.789907
0.71486,0.737715,0.811853,0.789828
0.714788,0.737607,0.811772,0.789749
0.714717,0.737498,0.811691,0.78967
0.714645,0.73739,0.81161,0.789591
0.714574,0.737282,0.811529,0.789512
0.714502,0.737174,0.811448,0.789433
0.714431,0.737066,0.811366,0.789354
0.714359,0.736958,0.811285,0.789275
0.714288,0.73685,0.811204,0.789196
0.714217,0.736742,0.811123,0.789117
0.714145,0.736634,0.811042,0.789038
0.714074,0.736525,0.810961,0.788959
0.714002,0.736417,0.81088,0.788881
0.713931,0.736309,0.810799,0.788802
0.71386,0.736201,0.810717,0.788723
0.713788,0.736093,0.810636,0.788644
0.713717,0.735985,0.810555,0.788565
0.713645,0.735878,0.810474,0.788486
0.713574,0.73577,0.810393,0.788407
0.713503,0.735662,0.810312,0.788329
0.713431,0.735554,0.810231,0.78825
0.71336,0.735446,0.81015,0.788171
0.713289,0.735338,0.810069,0.788092
0.713217,0.73523,0.809988,0.788013
0.713146,0.735122,0.809907,0.787934
0.713075,0.735015,0.809826,0.787856
0.713003,0.734907,0.809745,0.787777
0.712932,0.734799,0.809664,0.787698
0.712861,0.734691,0.809583,0.787619
0.71279,0.734583,0.809502,0.787541
0.712718,0.734476,0.809421,0.787462
0.712647,0.734368,0.80934,0.787383
0.712576,0.73426,0.809259,0.787304
0.712504,0.734152,0.809179,0.787226
0.712433,0.734045,0.809098,0.787147
0.712362,0.733937,0.809017,0.787068
0.712291,0.733829,0.808936,0.786989
0.712219,0.733722,0.808855,0.786911
0.712148,0.733614,0.808774,0.786832
0.712077,0.733507,0.808693,0.786753
0.712006,0.733399,0.808612,0.786675
0.711935,0.733291,0.808531,0.786596
0.711863,0.733184,0.808451,0.786517
0.711792,0.733076,0.80837,0.786439
0.711721,0.732969,0.808289,0.78636
0.71165,0.732861,0.808208,0.786281
0.711579,0.732754,0.808127,0.786203
0.711508,0.732646,0.808046,0.786124
0.711436,0.732539,0.807966,0.786046
0.711365,0.732431,0.807885,0.785967
0.711294,0.732324,0.807804,0.785888
0.711223,0.732217,0.807723,0.78581
0.711152,0.732109,0.807642,0.785731
0.711081,0.732002,0.807562,0.785653
0.71101,0.731894,0.807481,0.785574
0.710939,0.731787,0.8074,0.785495
0.710867,0.73168,0.807319,0.785417
0.710796,0.731572,0.807239,0.785338
0.710725,0.731465,0.807158,0.78526
0.710654,0.731358,0.807077,0.785181
0.710583,0.731251,0.806997,0.785103
0.710512,0.731143,0.806916,0.785024
0.710441,0.731036,0.806835,0.784946
0.71037,0.730929,0.806755,0.784867
0.710299,0.730822,0.806674,0.784789
0.710228,0.730714,0.806593,0.78471
0.710157,0.730607,0.806512,0.784632
0.710086,0.7305,0.806432,0.784553
0.710015,0.730393,0.806351,0.784475
0.709944,0.730286,0.806271,0.784396
0.709873,0.730179,0.80619,0.784318
0.709802,0.730072,0.806109,0.78424
0.709731,0.729965,0.806029,0.784161
0.70966,0.729857,0.805948,0.784083
0.709589,0.72975,0.805868,0.784004
0.709518,0.729643,0.805787,0.783926
0.709447,0.729536,0.805706,0.783848
0.709376,0.729429,0.805626,0.783769
0.709305,0.729322,0.805545,0.783691
0.709234,0.729215,0.805465,0.783612
0.709163,0.729108,0.805384,0.783534
0.709092,0.729002,0.805304,0.783456
0.709022,0.728895,0.805223,0.783377
0.708951,0.728788,0.805143,0.783299
0.70888,0.728681,0.805062,0.783221
0.708809,0.728574,0.804982,0.783142
0.708738,0.728467,0.804901,0.783064
0.708667,0.72836,0.804821,0.782986
0.708596,0.728253,0.80474,0.782907
0.708525,0.728147,0.80466,0.782829
0.708455,0.72804,0.804579,0.782751
0.708384,0.727933,0.804499,0.782673
0.708313,0.727826,0.804418,0.782594
0.708242,0.727719,0.804338,0.782516
0.708171,0.727613,0.804257,0.782438
0.7081,0.727506,0.804177,0.78236
0.70803,0.727399,0.804096,0.782281
0.707959,0.727293,0.804016,0.782203
0.707888,0.727186,0.803936,0.782125
0.707817,0.727079,0.803855,0.782047
0.707746,0.726973,0.803775,0.781969
0.707676,0.726866,0.803694,0.78189
0.707605,0.726759,0.803614,0.781812
0.707534,0.726653,0.803534,0.781734
0.707463,0.726546,0.803453,0.781656
0.707393,0.72644,0.803373,0.781578
0.707322,0.726333,0.803293,0.781499
0.707251,0.726227,0.803212,0.781421
0.70718,0.72612,0.803132,0.781343
0.70711,0.726014,0.803052,0.781265
