energy,productivity,fun,hunger
0.748914,0.73878,0.692813,0.606809
0.74884,0.738755,0.713526,0.606749
0.74839,0.738731,0.734858,0.606688
0.747941,0.738707,0.734784,0.606627
0.747493,0.738682,0.734711,0.606567
0.747044,0.738658,0.734637,0.606506
0.746596,0.738634,0.734564,0.606445
0.746148,0.738609,0.73449,0.606385
0.7457,0.738585,0.734417,0.606324
0.745253,0.738561,0.734344,0.606263
0.744806,0.738536,0.73427,0.606203
0.744359,0.738512,0.734197,0.606142
0.743912,0.738488,0.734123,0.606081
0.743466,0.738464,0.73405,0.606021
0.74302,0.738439,0.733977,0.60596
0.742574,0.738415,0.733903,0.6059
0.742129,0.738391,0.73383,0.605839
0.741684,0.738366,0.733756,0.605778
0.741239,0.738342,0.733683,0.605718
0.740794,0.738318,0.73361,0.605657
0.740349,0.738293,0.733536,0.605597
0.739905,0.738269,0.733463,0.605536
0.739461,0.738245,0.73339,0.605476
0.739018,0.73822,0.733316,0.605415
0.738574,0.738196,0.733243,0.605355
0.738131,0.738172,0.73317,0.605294
0.737688,0.738148,0.733096,0.605233
0.737246,0.738123,0.733023,0.605173
0.736804,0.738099,0.73295,0.605112
0.736361,0.738075,0.732876,0.605052
0.73592,0.73805,0.732803,0.604991
0.735478,0.738026,0.73273,0.604931
0.735037,0.738002,0.732656,0.60487
0.734596,0.737977,0.732583,0.60481
0.734155,0.737953,0.73251,0.604749
0.733715,0.737929,0.732437,0.604689
0.733275,0.737905,0.732363,0.604629
0.732835,0.73788,0.73229,0.604568
0.732395,0.737856,0.732217,0.604508
0.731956,0.737832,0.732144,0.604447
0.731516,0.737807,0.732071,0.604387
0.731078,0.737783,0.731997,0.604326
0.730639,0.737759,0.731924,0.604266
0.730201,0.737734,0.731851,0.604205
0.729763,0.73771,0.731778,0.604145
0.729325,0.737686,0.731705,0.604085
0.728887,0.737662,0.731631,0.604024
0.72845,0.737637,0.731558,0.603964
0.728013,0.737613,0.731485,0.603903
0.727576,0.737589,0.731412,0.603843
0.72714,0.737564,0.731339,0.603783
0.726703,0.73754,0.731266,0.603722
0.726267,0.737516,0.731193,0.603662
0.726195,0.737492,0.731119,0.603601
0.726122,0.737467,0.731046,0.603541
0.726049,0.737443,0.730973,0.603481
0.725977,0.737419,0.7309,0.60342
0.725904,0.737395,0.730827,0.60336
0.725832,0.73737,0.730754,0.6033
0.725759,0.737346,0.730681,0.603239
0.725687,0.737322,0.730608,0.603179
0.725614,0.737297,0.730535,0.603119
0.725541,0.737273,0.730462,0.603058
0.725469,0.737249,0.730389,0.602998
0.725396,0.737225,0.730316,0.602938
0.725324,0.7372,0.730243,0.602878
0.725251,0.737176,0.73017,0.602817
0.725179,0.737152,0.730097,0.602757
0.725106,0.737127,0.730024,0.602697
0.725034,0.737103,0.729951,0.602636
0.724961,0.737079,0.729878,0.602576
0.724889,0.737055,0.729805,0.602516
0.724816,0.73703,0.729732,0.602456
0.724744,0.737006,0.729659,0.602395
0.724671,0.736982,0.729586,0.602335
0.724599,0.736958,0.729513,0.602275
0.724526,0.736933,0.72944,0.602215
0.724454,0.736909,0.729367,0.602154
0.724381,0.736885,0.729294,0.602094
0.724309,0.736861,0.729221,0.602034
0.724237,0.736836,0.729148,0.601974
0.724164,0.736812,0.729075,0.601914
0.724092,0.736788,0.729002,0.601853
0.724019,0.736764,0.728929,0.601793
0.723947,0.736739,0.728856,0.601733
0.723874,0.736715,0.728783,0.601673
0.723802,0.736691,0.728711,0.601613
0.72373,0.736667,0.728638,0.601553
0.723657,0.736642,0.728565,0.601492
0.723585,0.736618,0.728492,0.601432
0.723513,0.736594,0.728419,0.601372
0.72344,0.73657,0.728346,0.601312
0.723368,0.736545,0.728273,0.601252
0.723296,0.736521,0.728201,0.601192
0.723223,0.736497,0.728128,0.601132
0.723151,0.736473,0.728055,0.601072
0.723079,0.736448,0.727982,0.601011
0.723006,0.736424,0.727909,0.600951
0.722934,0.7364,0.727837,0.600891
0.722862,0.736376,0.727764,0.600831
0.722789,0.736351,0.727691,0.600771
0.722717,0.736327,0.727618,0.600711
0.722645,0.736303,0.727546,0.600651
0.722573,0.736279,0.727473,0.600591
0.7225,0.736254,0.7274,0.600531
0.722428,0.73623,0.727327,0.600471
0.722356,0.736206,0.727255,0.600411
0.722284,0.736182,0.727182,0.600351
0.722211,0.736157,0.727109,0.600291
0.722139,0.736133,0.727036,0.600231
0.722067,0.736109,0.726964,0.600171
0.721995,0.736085,0.726891,0.600111
0.721923,0.73606,0.726818,0.600051
0.72185,0.736036,0.726746,0.599991
0.721778,0.736012,0.726673,0.599931
0.721706,0.735988,0.7266,0.599871
0.721634,0.735963,0.726528,0.599811
0.721562,0.735939,0.726455,0.599751
0.72149,0.735915,0.726382,0.599691
0.721417,0.735891,0.72631,0.599631
0.721345,0.735867,0.726237,0.599571
0.721273,0.735842,0.726164,0.599511
0.721201,0.735818,0.726092,0.599451
0.721129,0.735794,0.726019,0.599391
0.721057,0.73577,0.725947,0.599331
0.720985,0.735745,0.725874,0.599271
0.720913,0.735721,0.725801,0.599211
0.72084,0.735697,0.725729,0.599151
0.720768,0.735673,0.725656,0.599091
0.720696,0.735649,0.725584,0.599031
0.720624,0.735624,0.725511,0.598971
0.720552,0.7356,0.725439,0.598911
0.72048,0.735576,0.725366,0.598852
0.720408,0.735552,0.725294,0.598792
0.720336,0.735527,0.725221,0.598732
0.720264,0.735503,0.725148,0.598672
0.720192,0.735479,0.725076,0.598612
0.72012,0.735455,0.725003,0.598552
0.720048,0.735431,0.724931,0.598492
0.719976,0.735406,0.724858,0.598432
0.719904,0.735382,0.724786,0.598373
0.719832,0.735358,0.724713,0.598313
0.71976,0.735334,0.724641,0.598253
0.719688,0.73531,0.724569,0.598193
0.719616,0.735285,0.724496,0.598133
0.719544,0.735261,0.724424,0.598074
0.719472,0.735237,0.724351,0.598014
0.7194,0.735213,0.724279,0.597954
0.719328,0.735188,0.724206,0.597894
0.719256,0.735164,0.724134,0.597834
0.719184,0.73514,0.724062,0.597775
0.719112,0.735116,0.723989,0.597715
0.71904,0.735092,0.723917,0.597655
0.718969,0.735067,0.723844,0.597595
0.718897,0.735043,0.723772,0.597535
0.718825,0.735019,0.7237,0.597476
0.718753,0.734995,0.723627,0.597416
0.718681,0.734971,0.723555,0.597356
0.718609,0.734946,0.723482,0.597296
0.718537,0.734922,0.72341,0.597237
0.718465,0.734898,0.723338,0.597177
0.718394,0.734874,0.723265,0.597117
0.718322,0.73485,0.723193,0.597058
0.71825,0.734825,0.723121,0.596998
0.718178,0.734801,0.723048,0.596938
0.718106,0.734777,0.722976,0.596879
0.718034,0.734753,0.722904,0.596819
0.717963,0.734729,0.722832,0.596759
0.717891,0.734705,0.722759,0.596699
0.717819,0.73468,0.722687,0.59664
0.717747,0.734656,0.722615,0.59658
0.717676,0.734632,0.722542,0.59652
0.717604,0.734608,0.72247,0.596461
0.717532,0.734584,0.722398,0.596401
0.71746,0.734559,0.722326,0.596342
0.717389,0.734535,0.722254,0.596282
0.717317,0.734511,0.722181,0.596222
0.717245,0.734487,0.722109,0.596163
0.717173,0.734463,0.722037,0.596103
0.717102,0.734438,0.721965,0.596043
0.71703,0.734414,0.721892,0.595984
0.716958,0.73439,0.72182,0.595924
0.716886,0.734366,0.721748,0.595865
0.716815,0.734342,0.721676,0.595805
0.716743,0.734318,0.721604,0.595745
0.716671,0.734293,0.721532,0.595686
0.7166,0.734269,0.721459,0.595626
0.716528,0.734245,0.721387,0.595567
0.716456,0.734221,0.721315,0.595507
0.716385,0.734197,0.721243,0.595448
0.716313,0.734173,0.721171,0.595388
0.716242,0.734148,0.721099,0.595329
0.71617,0.734124,0.721027,0.595269
0.716098,0.7341,0.720955,0.595209
0.716027,0.734076,0.720882,0.59515
0.715955,0.734052,0.72081,0.59509
0.715883,0.734028,0.720738,0.595031
0.715812,0.734003,0.720666,0.594971
0.71574,0.733979,0.720594,0.594912
0.715669,0.733955,0.720522,0.594852
0.715597,0.733931,0.72045,0.594793
0.715526,0.733907,0.720378,0.594733
0.715454,0.733883,0.720306,0.594674
0.715383,0.733858,0.720234,0.594615
0.715311,0.733834,0.720162,0.594555
0.715239,0.73381,0.72009,0.594496
0.715168,0.733786,0.720018,0.594436
0.715096,0.733762,0.719946,0.594377
0.715025,0.733738,0.719874,0.594317
0.714953,0.733713,0.719802,0.594258
0.714882,0.733689,0.71973,0.594198
0.71481,0.733665,0.719658,0.594139
0.714739,0.733641,0.719586,0.59408
0.714667,0.733617,0.719514,0.59402
0.714596,0.733593,0.719442,0.593961
0.714525,0.733568,0.71937,0.593901
0.714453,0.733544,0.719298,0.593842
0.714382,0.73352,0.719226,0.593783
0.71431,0.733496,0.719154,0.593723
0.714239,0.733472,0.719082,0.593664
0.714167,0.733448,0.719011,0.593605
0.714096,0.733424,0.718939,0.593545
0.714025,0.733399,0.718867,0.593486
0.713953,0.733375,0.718795,0.593426
0.713882,0.733351,0.718723,0.593367
0.71381,0.733327,0.718651,0.593308
0.713739,0.733303,0.718579,0.593248
0.713668,0.733279,0.718507,0.593189
0.713596,0.733255,0.718436,0.59313
0.713525,0.73323,0.718364,0.59307
0.713454,0.733206,0.718292,0.593011
0.713382,0.733182,0.71822,0.592952
0.713311,0.733158,0.718148,0.592893
0.713239,0.733134,0.718076,0.592833
0.713168,0.73311,0.718005,0.592774
0.713097,0.733086,0.717933,0.592715
0.713026,0.733061,0.717861,0.592655
0.712954,0.733037,0.717789,0.592596
0.712883,0.733013,0.717717,0.592537
0.712812,0.732989,0.717646,0.592478
0.71274,0.732965,0.717574,0.592418
0.712669,0.732941,0.717502,0.592359
0.712598,0.732917,0.71743,0.5923
0.712527,0.732893,0.717359,0.592241
0.712455,0.732868,0.717287,0.592182
0.712384,0.732844,0.717215,0.592122
0.712313,0.73282,0.717143,0.592063
0.712242,0.732796,0.717072,0.592004
0.71217,0.732772,0.717,0.591945
0.712099,0.732748,0.716928,0.591885
0.712028,0.732724,0.716857,0.591826
0.711957,0.732699,0.716785,0.591767
0.711886,0.732675,0.716713,0.591708
0.711814,0.732651,0.716642,0.591649
0.711743,0.732627,0.71657,0.59159
0.711672,0.732603,0.716498,0.59153
0.711601,0.732579,0.716427,0.591471
0.71153,0.732555,0.716355,0.591412
0.711459,0.732531,0.716283,0.591353
0.711387,0.732507,0.716212,0.591294
0.711316,0.732482,0.71614,0.591235
0.711245,0.732458,0.716068,0.591176
0.711174,0.732434,0.715997,0.591116
0.711103,0.73241,0.715925,0.591057
0.711032,0.732386,0.715854,0.590998
0.710961,0.732362,0.715782,0.590939
0.71089,0.732338,0.715711,0.59088
0.710818,0.732314,0.715639,0.590821
0.710747,0.73229,0.715567,0.590762
0.710676,0.732265,0.715496,0.590703
0.710605,0.732241,0.715424,0.590644
0.710534,0.732217,0.715353,0.590585
0.710463,0.732193,0.715281,0.590526
0.710392,0.732169,0.71521,0.590467
0.710321,0.732145,0.715138,0.590408
0.71025,0.732121,0.715067,0.590348
0.710179,0.732097,0.714995,0.590289
0.710108,0.732073,0.714924,0.59023
0.710037,0.732048,0.714852,0.590171
0.709966,0.732024,0.714781,0.590112
0.709895,0.732,0.714709,0.590053
0.709824,0.731976,0.714638,0.589994
0.709753,0.731952,0.714566,0.589935
0.709682,0.731928,0.714495,0.589876
0.709611,0.731904,0.714423,0.589817
0.70954,0.73188,0.714352,0.589758
0.709469,0.731856,0.71428,0.589699
0.709398,0.731832,0.714209,0.58964
0.709327,0.731807,0.714138,0.589581
0.709256,0.731783,0.714066,0.589523
0.709185,0.731759,0.713995,0.589464
0.709114,0.731735,0.713923,0.589405
0.709044,0.731711,0.713852,0.589346
0.708973,0.731687,0.713781,0.589287
0.708902,0.731663,0.713709,0.589228
0.708831,0.731639,0.713638,0.589169
0.70876,0.731615,0.713566,0.58911
0.708689,0.731591,0.713495,0.589051
0.708618,0.731567,0.713424,0.588992
0.708547,0.731542,0.713352,0.588933
0.708477,0.731518,0.713281,0.588874
0.708406,0.731494,0.71321,0.588816
0.708335,0.73147,0.713138,0.588757
0.708264,0.731446,0.713067,0.588698
0.708193,0.731422,0.712996,0.588639
0.708122,0.731398,0.712925,0.58858
0.708052,0.731374,0.712853,0.588521
0.707981,0.73135,0.712782,0.588462
0.70791,0.731326,0.712711,0.588403
0.707839,0.731302,0.712639,0.588345
0.707768,0.731278,0.712568,0.588286
0.707698,0.731253,0.712497,0.588227
0.707627,0.731229,0.712426,0.588168
0.707556,0.731205,0.712354,0.588109
0.707485,0.731181,0.712283,0.588051
0.707415,0.731157,0.712212,0.587992
0.707344,0.731133,0.712141,0.587933
0.707273,0.731109,0.712069,0.587874
0.707202,0.731085,0.711998,0.587815
0.707132,0.731061,0.711927,0.587757
0.707061,0.731037,0.711856,0.587698
0.70699,0.731013,0.711785,0.587639
0.70692,0.730989,0.711714,0.58758
0.706849,0.730965,0.711642,0.587521
0.706778,0.730941,0.711571,0.587463
0.706707,0.730916,0.7115,0.587404
0.706637,0.730892,0.711429,0.587345
0.706566,0.730868,0.711358,0.587286
0.706495,0.730844,0.711287,0.587228
0.706425,0.73082,0.711215,0.587169
0.706354,0.730796,0.711144,0.58711
0.706284,0.730772,0.711073,0.587052
0.706213,0.730748,0.711002,0.586993
0.706142,0.730724,0.710931,0.586934
0.706072,0.7307,0.71086,0.586876
0.706001,0.730676,0.710789,0.586817
0.70593,0.730652,0.710718,0.586758
0.70586,0.730628,0.710647,0.586699
0.705789,0.730604,0.710576,0.586641
0.705719,0.73058,0.710505,0.586582
0.705648,0.730556,0.710434,0.586523
0.705578,0.730532,0.710362,0.586465
0.705507,0.730508,0.710291,0.586406
0.705436,0.730483,0.71022,0.586348
0.705366,0.730459,0.710149,0.586289
0.705295,0.730435,0.710078,0.58623
0.705225,0.730411,0.710007,0.586172
0.705154,0.730387,0.709936,0.586113
0.705084,0.730363,0.709865,0.586054
0.705013,0.730339,0.709794,0.585996
0.704943,0.730315,0.709723,0.585937
0.704872,0.730291,0.709652,0.585879
0.704802,0.730267,0.709581,0.58582
0.704731,0.730243,0.709511,0.585761
0.704661,0.730219,0.70944,0.585703
0.70459,0.730195,0.709369,0.585644
0.70452,0.730171,0.709298,0.585586
0.704449,0.730147,0.709227,0.585527
0.704379,0.730123,0.709156,0.585469
0.704309,0.730099,0.709085,0.58541
0.704238,0.730075,0.709014,0.585352
0.704168,0.730051,0.708943,0.585293
0.704097,0.730027,0.708872,0.585234
0.704027,0.730003,0.708801,0.585176
0.703957,0.729979,0.70873,0.585117
0.703886,0.729955,0.70866,0.585059
0.703816,0.72993,0.708589,0.585
0.703745,0.729906,0.708518,0.584942
0.703675,0.729882,0.708447,0.584883
0.703605,0.729858,0.708376,0.584825
0.703534,0.729834,0.708305,0.584766
0.703464,0.72981,0.708234,0.584708
0.703394,0.729786,0.708164,0.58465
0.703323,0.729762,0.708093,0.584591
0.703253,0.729738,0.708022,0.584533
0.703183,0.729714,0.707951,0.584474
0.703112,0.72969,0.70788,0.584416
0.703042,0.729666,0.70781,0.584357
0.702972,0.729642,0.707739,0.584299
0.702901,0.729618,0.707668,0.58424
0.702831,0.729594,0.707597,0.584182
0.702761,0.72957,0.707527,0.584124
0.70269,0.729546,0.707456,0.584065
0.70262,0.729522,0.707385,0.584007
0.70255,0.729498,0.707314,0.583948
0.70248,0.729474,0.707244,0.58389
0.702409,0.72945,0.707173,0.583832
0.702339,0.729426,0.707102,0.583773
0.702269,0.729402,0.707031,0.583715
0.702199,0.729378,0.706961,0.583656
0.702129,0.729354,0.70689,0.583598
0.702058,0.72933,0.706819,0.58354
0.701988,0.729306,0.706749,0.583481
0.701918,0.729282,0.706678,0.583423
0.701848,0.729258,0.706607,0.583365
0.701778,0.729234,0.706537,0.583306
0.701707,0.72921,0.706466,0.583248
0.701637,0.729186,0.706395,0.58319
0.701567,0.729162,0.706325,0.583131
0.701497,0.729138,0.706254,0.583073
0.701427,0.729114,0.706183,0.583015
0.701357,0.72909,0.706113,0.582956
0.701286,0.729066,0.706042,0.582898
0.701216,0.729042,0.705972,0.58284
0.701146,0.729018,0.705901,0.582782
0.701076,0.728994,0.70583,0.582723
0.701006,0.72897,0.70576,0.582665
0.700936,0.728946,0.705689,0.582607
0.700866,0.728922,0.705619,0.582548
0.700796,0.728898,0.705548,0.58249
0.700726,0.728874,0.705478,0.582432
0.700656,0.72885,0.705407,0.582374
0.700585,0.728826,0.705337,0.582315
0.700515,0.728802,0.705266,0.582257
0.700445,0.728778,0.705195,0.582199
0.700375,0.728754,0.705125,0.582141
0.700305,0.72873,0.705054,0.582083
0.700235,0.728706,0.704984,0.582024
0.700165,0.728682,0.704913,0.581966
0.700095,0.728658,0.704843,0.581908
0.700025,0.728634,0.704772,0.58185
0.699955,0.72861,0.704702,0.581792
0.699885,0.728586,0.704632,0.581733
0.699815,0.728562,0.704561,0.581675
0.699745,0.728538,0.704491,0.581617
0.699675,0.728514,0.70442,0.581559
0.699605,0.72849,0.70435,0.581501
0.699535,0.728466,0.704279,0.581443
0.699465,0.728442,0.704209,0.581384
0.699395,0.728418,0.704138,0.581326
0.699325,0.728394,0.704068,0.581268
0.699256,0.72837,0.703998,0.58121
0.699186,0.728346,0.703927,0.581152
0.699116,0.728322,0.703857,0.581094
0.699046,0.728298,0.703786,0.581036
0.698976,0.728274,0.703716,0.580978
0.698906,0.72825,0.703646,0.58092
0.698836,0.728226,0.703575,0.580861
0.698766,0.728202,0.703505,0.580803
0.698696,0.728178,0.703435,0.580745
0.698626,0.728154,0.703364,0.580687
0.698557,0.72813,0.703294,0.580629
0.698487,0.728106,0.703224,0.580571
0.698417,0.728082,0.703153,0.580513
0.698347,0.728058,0.703083,0.580455
0.698277,0.728034,0.703013,0.580397
0.698207,0.72801,0.702942,0.580339
0.698138,0.727986,0.702872,0.580281
0.698068,0.727962,0.702802,0.580223
0.697998,0.727938,0.702731,0.580165
0.697928,0.727915,0.702661,0.580107
0.697858,0.727891,0.702591,0.580049
0.697789,0.727867,0.702521,0.579991
0.697719,0.727843,0.70245,0.579933
0.697649,0.727819,0.70238,0.579875
0.697579,0.727795,0.70231,0.579817
0.69751,0.727771,0.70224,0.579759
0.69744,0.727747,0.702169,0.579701
0.69737,0.727723,0.702099,0.579643
0.6973,0.727699,0.702029,0.579585
0.697231,0.727675,0.701959,0.579527
0.697161,0.727651,0.701889,0.579469
0.697091,0.727627,0.701818,0.579411
0.697021,0.727603,0.701748,0.579353
0.696952,0.727579,0.701678,0.579295
0.696882,0.727555,0.701608,0.579237
0.696812,0.727531,0.701538,0.579179
0.696743,0.727507,0.701468,0.579121
0.696673,0.727483,0.701397,0.579063
0.696603,0.727459,0.701327,0.579006
0.696534,0.727435,0.701257,0.578948
0.696464,0.727411,0.701187,0.57889
0.696394,0.727387,0.701117,0.578832
0.696325,0.727364,0.722078,0.578774
0.695907,0.72734,0.722006,0.578716
0.695489,0.727316,0.721934,0.578658
0.695072,0.727292,0.721862,0.5786
0.694655,0.727268,0.721789,0.578543
0.694238,0.727244,0.721717,0.578485
0.693822,0.72722,0.721645,0.578427
0.693406,0.727196,0.721573,0.578369
0.69299,0.727172,0.721501,0.578311
0.692574,0.727148,0.721429,0.578253
0.692158,0.727124,0.721357,0.578195
0.691743,0.7271,0.721284,0.578138
0.691328,0.727076,0.721212,0.57808
0.690913,0.727052,0.72114,0.578022
0.690499,0.727028,0.721068,0.577964
0.690085,0.727004,0.720996,0.577906
0.689671,0.72698,0.720924,0.577849
0.689257,0.726957,0.720852,0.577791
0.688843,0.726933,0.72078,0.577733
0.68843,0.726909,0.720708,0.577675
0.688017,0.726885,0.720635,0.577618
0.687604,0.726861,0.720563,0.57756
0.687192,0.726837,0.720491,0.577502
0.686779,0.726813,0.720419,0.577444
0.686367,0.726789,0.720347,0.577387
0.685956,0.726765,0.720275,0.577329
0.685544,0.726741,0.720203,0.577271
0.685133,0.726717,0.720131,0.577213
0.684722,0.726693,0.720059,0.577156
0.684311,0.726669,0.719987,0.577098
0.6839,0.726645,0.719915,0.57704
0.68349,0.726621,0.719843,0.576982
0.68308,0.726598,0.719771,0.576925
0.68267,0.726574,0.719699,0.576867
0.682602,0.72655,0.719627,0.576809
0.682534,0.726526,0.719555,0.576752
0.682465,0.726502,0.719483,0.576694
0.682397,0.726478,0.719411,0.576636
0.682329,0.726454,0.719339,0.576579
0.682261,0.72643,0.719267,0.576521
0.682192,0.726406,0.719196,0.576463
0.682124,0.726382,0.719124,0.576406
0.682056,0.726358,0.719052,0.576348
0.681988,0.726334,0.71898,0.57629
0.68192,0.726311,0.718908,0.576233
0.681851,0.726287,0.718836,0.576175
0.681783,0.726263,0.718764,0.576118
0.681715,0.726239,0.718692,0.57606
0.681647,0.726215,0.71862,0.576002
0.681579,0.726191,0.718549,0.575945
0.681511,0.726167,0.718477,0.575887
0.681442,0.726143,0.718405,0.57583
0.681374,0.726119,0.718333,0.575772
0.681306,0.726095,0.718261,0.575714
0.681238,0.726071,0.718189,0.575657
0.68117,0.726048,0.718118,0.575599
0.681102,0.726024,0.718046,0.575542
0.681034,0.726,0.717974,0.575484
0.680965,0.725976,0.717902,0.575427
0.680897,0.725952,0.71783,0.575369
0.680829,0.725928,0.717759,0.575312
0.680761,0.725904,0.717687,0.575254
0.680693,0.72588,0.717615,0.575197
0.680625,0.725856,0.717543,0.575139
0.680557,0.725832,0.717471,0.575081
0.680489,0.725809,0.7174,0.575024
0.680421,0.725785,0.717328,0.574966
0.680353,0.725761,0.717256,0.574909
0.680285,0.725737,0.717185,0.574851
0.680217,0.725713,0.717113,0.574794
0.680149,0.725689,0.717041,0.574737
0.680081,0.725665,0.716969,0.574679
0.680013,0.725641,0.716898,0.574622
0.679945,0.725617,0.716826,0.574564
0.679877,0.725593,0.716754,0.574507
0.679809,0.72557,0.716683,0.574449
0.679741,0.725546,0.716611,0.574392
0.679673,0.725522,0.716539,0.574334
0.679605,0.725498,0.716468,0.574277
0.679537,0.725474,0.716396,0.574219
0.679469,0.72545,0.716324,0.574162
0.679401,0.725426,0.716253,0.574105
0.679333,0.725402,0.716181,0.574047
0.679265,0.725379,0.71611,0.57399
0.679197,0.725355,0.716038,0.573932
0.679129,0.725331,0.715966,0.573875
0.679061,0.725307,0.715895,0.573818
0.678993,0.725283,0.715823,0.57376
