energy,productivity,fun,hunger
0.710414,0.957898,0.901845,0.812658
0.710343,0.957771,0.901755,0.812577
0.710272,0.957643,0.901665,0.812496
0.710201,0.957515,0.901575,0.812415
0.71013,0.957387,0.901485,0.812333
0.710059,0.957259,0.901394,0.812252
0.709988,0.957132,0.901304,0.812171
0.709917,0.957004,0.901214,0.81209
0.709846,0.956876,0.901124,0.812008
0.709775,0.956748,0.901034,0.811927
0.709704,0.956621,0.900944,0.811846
0.709633,0.956493,0.900854,0.811765
0.709562,0.956365,0.900764,0.811684
0.709491,0.956238,0.900674,0.811603
0.70942,0.95611,0.900584,0.811521
0.709349,0.955982,0.900493,0.81144
0.709278,0.955855,0.900403,0.811359
0.709207,0.955727,0.900313,0.811278
0.709136,0.9556,0.900223,0.811197
0.709065,0.955472,0.900133,0.811116
0.708994,0.955345,0.900043,0.811035
0.708924,0.955217,0.899953,0.810953
0.708853,0.95509,0.899863,0.810872
0.708782,0.954962,0.899773,0.810791
0.708711,0.954835,0.899683,0.81071
0.70864,0.954707,0.899593,0.810629
0.708569,0.95458,0.899503,0.810548
0.708498,0.954452,0.899413,0.810467
0.708427,0.954325,0.899324,0.810386
0.708357,0.954198,0.899234,0.810305
0.708286,0.95407,0.899144,0.810224
0.708215,0.953943,0.899054,0.810143
0.708144,0.953816,0.898964,0.810062
0.708073,0.953688,0.898874,0.809981
0.708003,0.953561,0.898784,0.8099
0.707932,0.953434,0.898694,0.809819
0.707861,0.953306,0.898604,0.809738
0.70779,0.953179,0.898514,0.809657
0.707719,0.953052,0.898425,0.809576
0.707649,0.952925,0.898335,0.809495
0.707578,0.952798,0.898245,0.809414
0.707507,0.95267,0.898155,0.809333
0.707436,0.952543,0.898065,0.809252
0.707366,0.952416,0.897975,0.809171
0.707295,0.952289,0.897886,0.80909
0.707224,0.952162,0.897796,0.809009
0.707153,0.952035,0.897706,0.808929
0.707083,0.951908,0.897616,0.808848
0.707012,0.951781,0.897527,0.808767
0.706941,0.951654,0.897437,0.808686
0.706871,0.951527,0.897347,0.808605
0.7068,0.9514,0.897257,0.808524
0.706729,0.951273,0.897168,0.808443
0.706659,0.951146,0.897078,0.808362
0.706588,0.951019,0.896988,0.808282
0.706517,0.950892,0.896898,0.808201
0.706447,0.950765,0.896809,0.80812
0.706376,0.950638,0.896719,0.808039
0.706305,0.950511,0.896629,0.807958
0.706235,0.950384,0.89654,0.807878
0.706164,0.950257,0.89645,0.807797
0.706093,0.95013,0.89636,0.807716
0.706023,0.950004,0.896271,0.807635
0.705952,0.949877,0.896181,0.807554
0.705882,0.94975,0.896092,0.807474
0.705811,0.949623,0.896002,0.807393
0.70574,0.949497,0.895912,0.807312
0.70567,0.94937,0.895823,0.807231
0.705599,0.949243,0.895733,0.807151
0.705529,0.949116,0.895644,0.80707
0.705458,0.94899,0.895554,0.806989
0.705388,0.948863,0.895465,0.806909
0.705317,0.948736,0.895375,0.806828
0.705247,0.94861,0.895285,0.806747
0.705176,0.948483,0.895196,0.806667
0.705106,0.948357,0.895106,0.806586
0.705035,0.94823,0.895017,0.806505
0.704965,0.948103,0.894927,0.806425
0.704894,0.947977,0.894838,0.806344
0.704824,0.94785,0.894748,0.806263
0.704753,0.947724,0.894659,0.806183
0.704683,0.947597,0.894569,0.806102
0.704612,0.947471,0.89448,0.806021
0.704542,0.947344,0.894391,0.805941
0.704471,0.947218,0.894301,0.80586
0.704401,0.947091,0.894212,0.80578
0.70433,0.946965,0.894122,0.805699
0.70426,0.946839,0.894033,0.805619
0.704189,0.946712,0.893943,0.805538
0.704119,0.946586,0.893854,0.805457
0.704049,0.94646,0.893765,0.805377
0.703978,0.946333,0.893675,0.805296
0.703908,0.946207,0.893586,0.805216
0.703837,0.946081,0.893497,0.805135
0.703767,0.945954,0.893407,0.805055
0.703697,0.945828,0.893318,0.804974
0.703626,0.945702,0.893229,0.804894
0.703556,0.945576,0.893139,0.804813
0.703486,0.945449,0.89305,0.804733
0.703415,0.945323,0.892961,0.804652
0.703345,0.945197,0.892871,0.804572
0.703275,0.945071,0.892782,0.804491
0.703204,0.944945,0.892693,0.804411
0.703134,0.944819,0.892603,0.804331
0.703064,0.944692,0.892514,0.80425
0.702993,0.944566,0.892425,0.80417
0.702923,0.94444,0.892336,0.804089
0.702853,0.944314,0.892246,0.804009
0.702782,0.944188,0.892157,0.803928
0.702712,0.944062,0.892068,0.803848
0.702642,0.943936,0.891979,0.803768
0.702572,0.94381,0.89189,0.803687
0.702501,0.943684,0.8918,0.803607
0.702431,0.943558,0.891711,0.803527
0.702361,0.943432,0.891622,0.803446
0.702291,0.943306,0.891533,0.803366
0.70222,0.94318,0.891444,0.803286
0.70215,0.943055,0.891355,0.803205
0.70208,0.942929,0.891266,0.803125
0.70201,0.942803,0.891176,0.803045
0.70194,0.942677,0.891087,0.802964
0.701869,0.942551,0.890998,0.802884
0.701799,0.942425,0.890909,0.802804
0.701729,0.9423,0.89082,0.802723
0.701659,0.942174,0.890731,0.802643
0.701589,0.942048,0.890642,0.802563
0.701518,0.941922,0.890553,0.802483
0.701448,0.941797,0.890464,0.802402
0.701378,0.941671,0.890375,0.802322
0.701308,0.941545,0.890286,0.802242
0.701238,0.94142,0.890197,0.802162
0.701168,0.941294,0.890108,0.802081
0.701098,0.941168,0.890019,0.802001
0.701028,0.941043,0.88993,0.801921
0.700957,0.940917,0.889841,0.801841
0.700887,0.940791,0.889752,0.801761
0.700817,0.940666,0.889663,0.80168
0.700747,0.94054,0.889574,0.8016
0.700677,0.940415,0.889485,0.80152
0.700607,0.940289,0.889396,0.80144
0.700537,0.940164,0.889307,0.80136
0.700467,0.940038,0.889218,0.80128
0.700397,0.939913,0.889129,0.8012
0.700327,0.939787,0.88904,0.801119
0.700257,0.939662,0.888951,0.801039
0.700187,0.939536,0.888862,0.800959
0.700117,0.939411,0.888773,0.800879
0.700047,0.939286,0.888684,0.800799
0.699977,0.93916,0.888596,0.800719
0.699907,0.939035,0.888507,0.800639
0.699837,0.93891,0.888418,0.800559
0.699767,0.938784,0.888329,0.800479
0.699697,0.938659,0.88824,0.800399
0.699627,0.938534,0.888151,0.800319
0.699557,0.938408,0.888063,0.800239
0.699487,0.938283,0.887974,0.800159
0.699417,0.938158,0.887885,0.800079
0.699347,0.938033,0.887796,0.799999
0.699277,0.937907,0.887707,0.799919
0.699207,0.937782,0.887619,0.799839
0.699137,0.937657,0.88753,0.799759
0.699067,0.937532,0.887441,0.799679
0.698997,0.937407,0.887352,0.799599
0.698928,0.937282,0.887264,0.799519
0.698858,0.937157,0.887175,0.799439
0.698788,0.937032,0.887086,0.799359
0.698718,0.936906,0.886997,0.799279
0.698648,0.936781,0.886909,0.799199
0.698578,0.936656,0.88682,0.799119
0.698508,0.936531,0.886731,0.799039
0.698438,0.936406,0.886643,0.798959
0.698369,0.936281,0.886554,0.798879
0.698299,0.936156,0.886465,0.798799
0.698229,0.936031,0.886377,0.79872
0.698159,0.935906,0.886288,0.79864
0.698089,0.935782,0.8862,0.79856
0.698019,0.935657,0.886111,0.79848
0.69795,0.935532,0.886022,0.7984
0.69788,0.935407,0.885934,0.79832
0.69781,0.935282,0.885845,0.79824
0.69774,0.935157,0.885756,0.798161
0.697671,0.935032,0.885668,0.798081
0.697601,0.934908,0.885579,0.798001
0.697531,0.934783,0.885491,0.797921
0.697461,0.934658,0.885402,0.797841
0.697391,0.934533,0.885314,0.797762
0.697322,0.934409,0.885225,0.797682
0.697252,0.934284,0.885137,0.797602
0.697182,0.934159,0.885048,0.797522
0.697113,0.934034,0.88496,0.797443
0.697043,0.93391,0.884871,0.797363
0.696973,0.933785,0.884783,0.797283
0.696903,0.93366,0.884694,0.797203
0.696834,0.933536,0.884606,0.797124
0.696764,0.933411,0.884517,0.797044
0.696694,0.933287,0.884429,0.796964
0.696625,0.933162,0.88434,0.796885
0.696555,0.933038,0.884252,0.796805
0.696485,0.932913,0.884163,0.796725
0.696416,0.932788,0.884075,0.796646
0.696346,0.932664,0.883987,0.796566
0.696276,0.932539,0.883898,0.796486
0.696207,0.932415,0.88381,0.796407
0.696137,0.932291,0.883721,0.796327
0.696068,0.932166,0.883633,0.796247
0.695998,0.932042,0.883545,0.796168
0.695928,0.931917,0.883456,0.796088
0.695859,0.931793,0.883368,0.796008
0.695789,0.931669,0.88328,0.795929
0.69572,0.931544,0.883191,0.795849
0.69565,0.93142,0.883103,0.79577
0.695581,0.931296,0.883015,0.79569
0.695511,0.931171,0.882926,0.79561
0.695441,0.931047,0.882838,0.795531
0.695372,0.930923,0.88275,0.795451
0.695302,0.930798,0.882662,0.795372
0.695233,0.930674,0.882573,0.795292
0.695163,0.93055,0.882485,0.795213
0.695094,0.930426,0.882397,0.795133
0.695024,0.930302,0.882309,0.795054
0.694955,0.930177,0.88222,0.794974
0.694885,0.930053,0.882132,0.794895
0.694816,0.929929,0.882044,0.794815
0.694746,0.929805,0.881956,0.794736
0.694677,0.929681,0.881868,0.794656
0.694607,0.929557,0.881779,0.794577
0.694538,0.929433,0.881691,0.794497
0.694468,0.929309,0.881603,0.794418
0.694399,0.929185,0.881515,0.794338
0.69433,0.929061,0.881427,0.794259
0.69426,0.928937,0.881339,0.79418
0.694191,0.928813,0.88125,0.7941
0.694121,0.928689,0.881162,0.794021
0.694052,0.928565,0.881074,0.793941
0.693982,0.928441,0.880986,0.793862
0.693913,0.928317,0.880898,0.793783
0.693844,0.928193,0.88081,0.793703
0.693774,0.928069,0.880722,0.793624
0.693705,0.927945,0.880634,0.793544
0.693636,0.927821,0.880546,0.793465
0.693566,0.927697,0.880458,0.793386
0.693497,0.927574,0.88037,0.793306
0.693427,0.92745,0.880282,0.793227
0.693358,0.927326,0.880193,0.793148
0.693289,0.927202,0.880105,0.793068
0.692873,0.927078,0.880017,0.792989
0.692457,0.926955,0.879929,0.79291
0.692042,0.926831,0.879841,0.792831
0.691627,0.926707,0.879753,0.792751
0.691212,0.926584,0.879666,0.792672
0.690797,0.92646,0.879578,0.792593
0.690382,0.926336,0.87949,0.792513
0.689968,0.926213,0.879402,0.792434
0.689554,0.926089,0.879314,0.792355
0.689141,0.925965,0.879226,0.792276
0.688727,0.925842,0.879138,0.792197
0.688314,0.925718,0.87905,0.792117
0.687901,0.925595,0.878962,0.792038
0.687488,0.925471,0.878874,0.791959
0.687076,0.925348,0.878786,0.79188
0.686664,0.925224,0.878698,0.791801
0.686252,0.925101,0.87861,0.791721
0.68584,0.924977,0.878523,0.791642
0.685428,0.924854,0.878435,0.791563
0.685017,0.92473,0.878347,0.791484
0.684606,0.924607,0.878259,0.791405
0.684196,0.924483,0.878171,0.791326
0.683785,0.92436,0.878083,0.791246
0.683375,0.924237,0.877996,0.791167
0.682965,0.924113,0.877908,0.791088
0.682555,0.92399,0.87782,0.791009
0.682146,0.923866,0.877732,0.79093
0.681736,0.923743,0.877644,0.790851
0.681327,0.92362,0.877557,0.790772
0.680919,0.923497,0.877469,0.790693
0.68051,0.923373,0.877381,0.790614
0.680102,0.92325,0.877293,0.790535
0.679694,0.923127,0.877206,0.790456
0.679286,0.923004,0.877118,0.790376
0.678878,0.92288,0.87703,0.790297
0.678471,0.922757,0.876943,0.790218
0.678064,0.922634,0.876855,0.790139
0.677657,0.922511,0.876767,0.79006
0.677251,0.922388,0.87668,0.789981
0.676844,0.922265,0.876592,0.789902
0.676438,0.922142,0.876504,0.789823
0.676033,0.922019,0.876417,0.789744
0.675627,0.921895,0.876329,0.789665
0.675222,0.921772,0.876241,0.789586
0.674816,0.921649,0.876154,0.789508
0.674412,0.921526,0.876066,0.789429
0.674007,0.921403,0.875978,0.78935
0.673603,0.92128,0.875891,0.789271
0.673199,0.921157,0.875803,0.789192
0.672795,0.921034,0.875716,0.789113
0.672391,0.920912,0.875628,0.789034
0.671988,0.920789,0.875541,0.788955
0.671584,0.920666,0.875453,0.788876
0.671182,0.920543,0.875365,0.788797
0.670779,0.92042,0.875278,0.788718
0.670376,0.920297,0.87519,0.788639
0.669974,0.920174,0.875103,0.788561
0.669572,0.920051,0.875015,0.788482
0.669171,0.919929,0.874928,0.788403
0.668769,0.919806,0.87484,0.788324
0.668368,0.919683,0.874753,0.788245
0.667967,0.91956,0.874665,0.788166
0.667566,0.919438,0.874578,0.788088
0.667166,0.919315,0.87449,0.788009
0.666765,0.919192,0.874403,0.78793
0.666365,0.919069,0.874316,0.787851
0.665966,0.918947,0.874228,0.787772
0.665566,0.918824,0.874141,0.787694
0.665167,0.918701,0.874053,0.787615
0.664768,0.918579,0.873966,0.787536
0.664369,0.918456,0.873879,0.787457
0.66397,0.918334,0.873791,0.787379
0.663572,0.918211,0.873704,0.7873
0.663174,0.918089,0.873616,0.787221
0.662776,0.917966,0.873529,0.787142
0.662378,0.917843,0.873442,0.787064
0.661981,0.917721,0.873354,0.786985
0.661584,0.917598,0.873267,0.786906
0.661187,0.917476,0.87318,0.786828
0.66079,0.917354,0.873092,0.786749
0.660394,0.917231,0.873005,0.78667
0.659997,0.917109,0.872918,0.786592
0.659601,0.916986,0.87283,0.786513
0.659206,0.916864,0.872743,0.786434
0.65881,0.916741,0.872656,0.786356
0.658415,0.916619,0.872569,0.786277
0.65802,0.916497,0.872481,0.786198
0.657625,0.916374,0.872394,0.78612
0.657231,0.916252,0.872307,0.786041
0.656836,0.91613,0.87222,0.785963
0.656442,0.916008,0.872132,0.785884
0.656048,0.915885,0.872045,0.785805
0.655655,0.915763,0.871958,0.785727
0.655262,0.915641,0.871871,0.785648
0.654868,0.915519,0.871784,0.78557
0.654475,0.915396,0.871696,0.785491
0.654083,0.915274,0.871609,0.785413
0.65369,0.915152,0.871522,0.785334
0.653298,0.91503,0.871435,0.785255
0.653233,0.914908,0.871348,0.785177
0.653168,0.914786,0.871261,0.785098
0.653102,0.914664,0.871174,0.78502
0.653037,0.914541,0.871086,0.784941
0.652972,0.914419,0.870999,0.784863
0.652906,0.914297,0.870912,0.784784
0.652841,0.914175,0.870825,0.784706
0.652776,0.914053,0.870738,0.784627
0.652711,0.913931,0.870651,0.784549
0.652645,0.913809,0.870564,0.784471
0.65258,0.913687,0.870477,0.784392
0.652515,0.913565,0.87039,0.784314
0.652449,0.913443,0.870303,0.784235
0.652384,0.913321,0.870216,0.784157
0.652319,0.9132,0.870129,0.784078
0.652254,0.913078,0.870042,0.784
0.652189,0.912956,0.869955,0.783922
0.652123,0.912834,0.869868,0.783843
0.652058,0.912712,0.869781,0.783765
0.651993,0.91259,0.869694,0.783686
0.651928,0.912468,0.869607,0.783608
0.651862,0.912347,0.86952,0.78353
0.651797,0.912225,0.869433,0.783451
0.651732,0.912103,0.869346,0.783373
0.651667,0.911981,0.869259,0.783295
0.651406,0.912772,0.868824,0.783216
0.651146,0.913562,0.86839,0.783138
0.650885,0.914354,0.867956,0.78306
0.650625,0.915146,0.867522,0.782981
0.650365,0.915939,0.867088,0.782903
0.650105,0.916732,0.866655,0.782825
0.649845,0.917527,0.866221,0.782747
0.649585,0.918322,0.865788,0.782668
0.649325,0.919117,0.865355,0.78259
0.649065,0.919914,0.864923,0.782512
0.648806,0.920711,0.86449,0.782433
0.648546,0.921508,0.864058,0.782355
0.648287,0.922307,0.863626,0.782277
0.648027,0.923106,0.863194,0.782199
0.647768,0.923906,0.862763,0.782121
0.647509,0.924706,0.862332,0.782042
0.64725,0.925507,0.8619,0.781964
0.646991,0.926309,0.861469,0.781886
0.646732,0.927112,0.861039,0.781808
0.646474,0.927915,0.860608,0.78173
0.646215,0.928719,0.860178,0.781651
0.645957,0.929523,0.859748,0.781573
0.645698,0.930329,0.859318,0.781495
0.64544,0.931135,0.858888,0.781417
0.645182,0.931941,0.858459,0.781339
0.644924,0.932749,0.85803,0.781261
0.644666,0.933557,0.857601,0.781183
0.644408,0.934366,0.857172,0.781104
0.64415,0.935175,0.856744,0.781026
0.643893,0.935986,0.856315,0.780948
0.643635,0.936797,0.855887,0.78087
0.643378,0.937608,0.855459,0.780792
0.64312,0.93842,0.855032,0.780714
0.642863,0.939234,0.854604,0.780636
0.642606,0.940047,0.854177,0.780558
0.642349,0.940862,0.85375,0.78048
0.642092,0.941677,0.853323,0.780402
0.641835,0.942493,0.852896,0.780324
0.641579,0.943309,0.85247,0.780246
0.641322,0.944127,0.852044,0.780168
0.641065,0.944945,0.851618,0.78009
0.640809,0.945763,0.851192,0.780012
0.640553,0.946583,0.850766,0.779934
0.640297,0.947403,0.850341,0.779856
0.64004,0.948224,0.849916,0.779778
0.639784,0.949045,0.849491,0.7797
0.639529,0.949867,0.849066,0.779622
0.639273,0.95069,0.848642,0.779544
0.639017,0.951514,0.848217,0.779466
0.638761,0.952338,0.847793,0.779388
0.638506,0.953163,0.847369,0.77931
0.638251,0.953989,0.846946,0.779232
0.637995,0.954816,0.846522,0.779154
0.63774,0.955643,0.846099,0.779076
0.637485,0.956471,0.845676,0.778998
0.63723,0.9573,0.845253,0.77892
0.636975,0.958129,0.844831,0.778842
0.63672,0.958959,0.844408,0.778764
0.636466,0.95979,0.843986,0.778687
0.636211,0.960622,0.843564,0.778609
0.635957,0.961454,0.843142,0.778531
0.635702,0.962287,0.842721,0.778453
0.635448,0.963121,0.8423,0.778375
0.635194,0.963955,0.841878,0.778297
0.63494,0.96479,0.841458,0.77822
0.634686,0.965626,0.841037,0.778142
0.634432,0.966463,0.840616,0.778064
0.634178,0.9673,0.840196,0.777986
0.633925,0.968138,0.839776,0.777908
0.633671,0.968977,0.839356,0.77783
0.633418,0.969816,0.838937,0.777753
0.633164,0.970657,0.838517,0.777675
0.632911,0.971498,0.838098,0.777597
0.632658,0.972339,0.837679,0.777519
0.632405,0.973182,0.83726,0.777442
0.632152,0.974025,0.836841,0.777364
0.631899,0.974869,0.836423,0.777286
0.631646,0.975713,0.836005,0.777208
0.631394,0.976559,0.835587,0.777131
0.631141,0.977405,0.835169,0.777053
0.630889,0.978252,0.834752,0.776975
0.630636,0.979099,0.834334,0.776898
0.630384,0.979947,0.833917,0.77682
0.630132,0.980796,0.8335,0.776742
0.62988,0.981646,0.833084,0.776665
0.629628,0.982497,0.832667,0.776587
0.629376,0.983348,0.832251,0.776509
0.629125,0.9842,0.831835,0.776432
0.628873,0.985053,0.831419,0.776354
0.628621,0.985906,0.831003,0.776276
0.62837,0.98676,0.830588,0.776199
0.628119,0.987615,0.830172,0.776121
0.627867,0.988471,0.829757,0.776043
0.627616,0.989327,0.829342,0.775966
0.627365,0.990184,0.828928,0.775888
0.627114,0.991042,0.828513,0.775811
0.626863,0.991901,0.828099,0.775733
0.626613,0.99276,0.827685,0.775655
0.626362,0.99362,0.827271,0.775578
0.626112,0.994481,0.826858,0.7755
0.625861,0.995343,0.826444,0.775423
0.625611,0.996205,0.826031,0.775345
0.625361,0.997068,0.825618,0.775268
0.62511,0.997932,0.825205,0.77519
0.62486,0.998797,0.824793,0.775113
0.624611,0.999662,0.82438,0.775035
0.624361,1,0.823968,0.774958
0.624111,1,0.823556,0.77488
0.623861,1,0.823145,0.774803
0.623612,1,0.822733,0.774725
0.623362,1,0.822322,0.774648
0.623113,1,0.821911,0.77457
0.622864,1,0.8215,0.774493
0.622615,1,0.821089,0.774415
0.622366,1,0.820678,0.774338
0.622117,1,0.820268,0.77426
0.621868,1,0.819858,0.774183
0.621619,1,0.819448,0.774106
0.621371,1,0.819038,0.774028
0.621122,1,0.818629,0.773951
0.620874,1,0.81822,0.773873
0.620625,1,0.817811,0.773796
0.620377,1,0.817402,0.773719
0.620129,1,0.816993,0.773641
0.619881,1,0.816585,0.773564
0.619633,1,0.816176,0.773487
0.619385,1,0.815768,0.773409
0.619137,1,0.81536,0.773332
0.61889,1,0.814953,0.773255
0.618642,1,0.814545,0.773177
0.618395,1,0.814138,0.7731
0.618147,1,0.813731,0.773023
0.6179,1,0.813324,0.772945
0.617653,1,0.812918,0.772868
0.617406,1,0.812511,0.772791
0.617159,1,0.812105,0.772713
0.616912,1,0.811699,0.772636
0.616665,1,0.811293,0.772559
0.616419,1,0.810887,0.772482
0.616172,1,0.810482,0.772404
0.615926,1,0.810077,0.772327
0.615679,1,0.809672,0.77225
0.615433,1,0.809267,0.772173
0.615187,1,0.808862,0.772095
0.614941,1,0.808458,0.772018
0.614695,1,0.808054,0.771941
0.614449,1,0.80765,0.771864
0.614203,1,0.807246,0.771787
0.613958,1,0.806842,0.77171
0.613712,1,0.806439,0.771632
0.613467,1,0.806036,0.771555
0.613221,1,0.805633,0.771478
0.612976,1,0.80523,0.771401
0.612731,1,0.804828,0.771324
0.612486,1,0.804425,0.771247
0.612241,1,0.804023,0.771169
0.611996,1,0.803621,0.771092
0.611751,1,0.803219,0.771015
0.611507,1,0.802818,0.770938
0.611262,1,0.802416,0.770861
0.611017,1,0.802015,0.770784
0.610773,1,0.801614,0.770707
0.610529,1,0.801213,0.77063
0.610285,1,0.800813,0.770553
0.610041,1,0.800412,0.770476
0.609797,1,0.800012,0.770399
0.609553,1,0.799612,0.770322
0.609309,1,0.799212,0.770245
0.609065,1,0.798813,0.770168
0.608822,1,0.798414,0.770091
0.608578,1,0.798014,0.770014
0.608335,1,0.797615,0.769937
0.608091,1,0.797217,0.76986
0.607848,1,0.796818,0.769783
0.607605,1,0.79642,0.769706
0.607362,1,0.796021,0.769629
0.607119,1,0.795623,0.769552
0.606876,1,0.795226,0.769475
0.606633,1,0.794828,0.769398
0.606391,1,0.794431,0.769321
0.606148,1,0.794034,0.769244
0.605906,1,0.793637,0.769167
0.605663,1,0.79324,0.76909
0.605421,1,0.792843,0.769013
0.605179,1,0.792447,0.768936
0.604937,1,0.792051,0.768859
0.604695,1,0.791655,0.768782
0.604453,1,0.791259,0.768706
0.604211,1,0.790863,0.768629
0.60397,1,0.790468,0.768552
0.603728,1,0.790073,0.768475
0.603487,1,0.789678,0.768398
0.603245,1,0.789283,0.768321
0.603004,1,0.788888,0.768244
0.602763,1,0.788494,0.768168
0.602522,1,0.7881,0.768091
0.602281,1,0.787706,0.768014
0.60204,1,0.787312,0.767937
0.601799,1,0.786918,0.76786
0.601558,1,0.786525,0.767784
0.601318,1,0.786131,0.767707
0.601077,1,0.785738,0.76763
0.600837,1,0.785346,0.767553
0.600597,1,0.784953,0.767477
0.600356,1,0.784561,0.7674
0.600116,1,0.784168,0.767323
0.599876,1,0.783776,0.767246
0.599636,1,0.783384,0.76717
0.599396,1,0.782993,0.767093
0.599157,1,0.782601,0.767016
0.598917,1,0.78221,0.766939
0.598677,1,0.781819,0.766863
0.598438,1,0.781428,0.766786
