energy,productivity,fun,hunger
0.7458,0.784088,0.770301,0.86175
0.745725,0.784008,0.793331,0.861664
0.745278,0.783928,0.793251,0.861578
0.74483,0.783849,0.793172,0.861491
0.744384,0.783769,0.793093,0.861405
0.743937,0.783689,0.793013,0.861319
0.743491,0.78361,0.792934,0.861233
0.743045,0.78353,0.792855,0.861147
0.742599,0.78345,0.792775,0.861061
0.742153,0.783371,0.792696,0.860975
0.741708,0.783291,0.792617,0.860889
0.741263,0.783212,0.792538,0.860803
0.740818,0.783132,0.792458,0.860716
0.740374,0.783052,0.792379,0.86063
0.73993,0.782973,0.7923,0.860544
0.739486,0.782893,0.792221,0.860458
0.739042,0.782814,0.792142,0.860372
0.738599,0.782734,0.792062,0.860286
0.738156,0.782655,0.791983,0.8602
0.737713,0.782575,0.791904,0.860114
0.73727,0.782495,0.791825,0.860028
0.736828,0.782416,0.791746,0.859942
0.736386,0.782336,0.791666,0.859856
0.735944,0.782257,0.791587,0.85977
0.735502,0.782177,0.791508,0.859684
0.735061,0.782098,0.791429,0.859598
0.73462,0.782018,0.79135,0.859512
0.734179,0.781939,0.791271,0.859426
0.733739,0.781859,0.791191,0.85934
0.733299,0.78178,0.791112,0.859254
0.732859,0.781701,0.791033,0.859168
0.732419,0.781621,0.790954,0.859083
0.73198,0.781542,0.790875,0.858997
0.731541,0.781462,0.790796,0.858911
0.731102,0.781383,0.790717,0.858825
0.730663,0.781303,0.790638,0.858739
0.730225,0.781224,0.790559,0.858653
0.730152,0.781145,0.79048,0.858567
0.730079,0.781065,0.814113,0.858481
0.729641,0.780986,0.814031,0.858396
0.729203,0.780906,0.81395,0.85831
0.728765,0.780827,0.813868,0.858224
0.728328,0.780748,0.813787,0.858138
0.727891,0.780668,0.813706,0.858052
0.727455,0.780589,0.813624,0.857966
0.727018,0.78051,0.813543,0.857881
0.726582,0.78043,0.813462,0.857795
0.726146,0.780351,0.81338,0.857709
0.72571,0.780272,0.813299,0.857623
0.725275,0.780192,0.813218,0.857538
0.72484,0.780113,0.813136,0.857452
0.724405,0.780034,0.813055,0.857366
0.72397,0.779955,0.812974,0.85728
0.723536,0.779875,0.812892,0.857195
0.723102,0.779796,0.812811,0.857109
0.722668,0.779717,0.81273,0.857023
0.722235,0.779638,0.812648,0.856937
0.721801,0.779558,0.812567,0.856852
0.721368,0.779479,0.812486,0.856766
0.720935,0.7794,0.812405,0.85668
0.720503,0.779321,0.812323,0.856595
0.720071,0.779241,0.812242,0.856509
0.719639,0.779162,0.812161,0.856423
0.719207,0.779083,0.81208,0.856338
0.718775,0.779004,0.811999,0.856252
0.718344,0.778925,0.811917,0.856166
0.717913,0.778846,0.811836,0.856081
0.717482,0.778766,0.811755,0.855995
0.717052,0.778687,0.811674,0.85591
0.716622,0.778608,0.811593,0.855824
0.716192,0.778529,0.811512,0.855738
0.715762,0.77845,0.81143,0.855653
0.715333,0.778371,0.811349,0.855567
0.714904,0.778292,0.811268,0.855482
0.714475,0.778213,0.811187,0.855396
0.714403,0.778133,0.811106,0.855311
0.714332,0.778054,0.835355,0.855225
0.713903,0.777975,0.835272,0.85514
0.713475,0.777896,0.835188,0.855054
0.713047,0.777817,0.835105,0.854969
0.712619,0.777738,0.835021,0.854883
0.712192,0.777659,0.834938,0.854798
0.711764,0.77758,0.834854,0.854712
0.711337,0.777501,0.834771,0.854627
0.71091,0.777422,0.834687,0.854541
0.710484,0.777343,0.834604,0.854456
0.710058,0.777264,0.83452,0.85437
0.709632,0.777185,0.834437,0.854285
0.709206,0.777106,0.834354,0.854199
0.70878,0.777027,0.83427,0.854114
0.708355,0.776948,0.834187,0.854029
0.70793,0.776869,0.834103,0.853943
0.707506,0.77679,0.83402,0.853858
0.707081,0.776711,0.833936,0.853772
0.706657,0.776632,0.833853,0.853687
0.706233,0.776553,0.83377,0.853602
0.705809,0.776474,0.833686,0.853516
0.705386,0.776395,0.833603,0.853431
0.704963,0.776317,0.83352,0.853346
0.70454,0.776238,0.833436,0.85326
0.704117,0.776159,0.833353,0.853175
0.703694,0.77608,0.83327,0.85309
0.703272,0.776001,0.833186,0.853004
0.70285,0.775922,0.833103,0.852919
0.702429,0.775843,0.83302,0.852834
0.702358,0.775764,0.832936,0.852748
0.702288,0.775686,0.857839,0.852663
0.701867,0.775607,0.857753,0.852578
0.701446,0.775528,0.857667,0.852493
0.701025,0.775449,0.857581,0.852407
0.700604,0.77537,0.857496,0.852322
0.700184,0.775292,0.85741,0.852237
0.699764,0.775213,0.857324,0.852152
0.699344,0.775134,0.857238,0.852067
0.698925,0.775055,0.857153,0.851981
0.698505,0.774976,0.857067,0.851896
0.698086,0.774898,0.856981,0.851811
0.697667,0.774819,0.856895,0.851726
0.697249,0.77474,0.85681,0.851641
0.696831,0.774661,0.856724,0.851555
0.696412,0.774583,0.856638,0.85147
0.696343,0.774504,0.856553,0.851385
0.696273,0.774425,0.882161,0.8513
0.695855,0.774347,0.882073,0.851215
0.695438,0.774268,0.881985,0.85113
0.695021,0.774189,0.881897,0.851045
0.694604,0.77411,0.881808,0.85096
0.694187,0.774032,0.88172,0.850874
0.693771,0.773953,0.881632,0.850789
0.693354,0.773874,0.881544,0.850704
0.692938,0.773796,0.881456,0.850619
0.692523,0.773717,0.881367,0.850534
0.692107,0.773639,0.881279,0.850449
0.691692,0.77356,0.881191,0.850364
0.691277,0.773481,0.881103,0.850279
0.690862,0.773403,0.881015,0.850194
0.690448,0.773324,0.880927,0.850109
0.690033,0.773245,0.880839,0.850024
0.689619,0.773167,0.880751,0.849939
0.689206,0.773088,0.880663,0.849854
0.688792,0.77301,0.880575,0.849769
0.688379,0.772931,0.880487,0.849684
0.687966,0.772853,0.880398,0.849599
0.687553,0.772774,0.88031,0.849514
0.687141,0.772696,0.880222,0.849429
0.686729,0.772617,0.880134,0.849344
0.68666,0.772538,0.880046,0.849259
0.686591,0.77246,0.906357,0.849174
0.686179,0.772381,0.906266,0.849089
0.685768,0.772303,0.906176,0.849004
0.685356,0.772224,0.906085,0.84892
0.684945,0.772146,0.905995,0.848835
0.684534,0.772068,0.905904,0.84875
0.684123,0.771989,0.905813,0.848665
0.683713,0.771911,0.905723,0.84858
0.683303,0.771832,0.905632,0.848495
0.682893,0.771754,0.905542,0.84841
0.682483,0.771675,0.905451,0.848325
0.682074,0.771597,0.905361,0.848241
0.681664,0.771518,0.90527,0.848156
0.681255,0.77144,0.90518,0.848071
0.680847,0.771362,0.905089,0.847986
0.680438,0.771283,0.904999,0.847901
0.68003,0.771205,0.904908,0.847817
0.679622,0.771126,0.904818,0.847732
0.679214,0.771048,0.904727,0.847647
0.678807,0.77097,0.904637,0.847562
0.6784,0.770891,0.904546,0.847478
0.677993,0.770813,0.904456,0.847393
0.677586,0.770735,0.904365,0.847308
0.677179,0.770656,0.904275,0.847223
0.676773,0.770578,0.904184,0.847139
0.676367,0.7705,0.904094,0.847054
0.675961,0.770421,0.904004,0.846969
0.675556,0.770343,0.903913,0.846884
0.67515,0.770265,0.903823,0.8468
0.674745,0.770187,0.903732,0.846715
0.67434,0.770108,0.903642,0.84663
0.674273,0.77003,0.903552,0.846546
0.674206,0.769952,0.930565,0.846461
0.673801,0.769873,0.930472,0.846376
0.673397,0.769795,0.930379,0.846292
0.672993,0.769717,0.930286,0.846207
0.672589,0.769639,0.930193,0.846123
0.672186,0.769561,0.9301,0.846038
0.671782,0.769482,0.930007,0.845953
0.671379,0.769404,0.929914,0.845869
0.670977,0.769326,0.929821,0.845784
0.670574,0.769248,0.929728,0.8457
0.670172,0.76917,0.929635,0.845615
0.66977,0.769091,0.929542,0.84553
0.669368,0.769013,0.929449,0.845446
0.668966,0.768935,0.929356,0.845361
0.668565,0.768857,0.929263,0.845277
0.668164,0.768779,0.92917,0.845192
0.667763,0.768701,0.929077,0.845108
0.667362,0.768623,0.928984,0.845023
0.666962,0.768544,0.928892,0.844939
0.666562,0.768466,0.928799,0.844854
0.666162,0.768388,0.928706,0.84477
0.665762,0.76831,0.928613,0.844685
0.665363,0.768232,0.92852,0.844601
0.664964,0.768154,0.928427,0.844516
0.664565,0.768076,0.928334,0.844432
0.664498,0.767998,0.928241,0.844348
0.664432,0.76792,0.955993,0.844263
0.664033,0.767842,0.955898,0.844179
0.663635,0.767764,0.955802,0.844094
0.663236,0.767686,0.955706,0.84401
0.662839,0.767608,0.955611,0.843925
0.662441,0.76753,0.955515,0.843841
0.662043,0.767452,0.95542,0.843757
0.661646,0.767374,0.955324,0.843672
0.661249,0.767296,0.955229,0.843588
0.660853,0.767218,0.955133,0.843504
0.660456,0.76714,0.955038,0.843419
0.66006,0.767062,0.954942,0.843335
0.659664,0.766984,0.954847,0.843251
0.659268,0.766906,0.954751,0.843166
0.658873,0.766828,0.954656,0.843082
0.658477,0.76675,0.95456,0.842998
0.658082,0.766672,0.954465,0.842913
0.657687,0.766594,0.954369,0.842829
0.657293,0.766516,0.954274,0.842745
0.656899,0.766438,0.954178,0.84266
0.656504,0.76636,0.954083,0.842576
0.656111,0.766282,0.953988,0.842492
0.655717,0.766205,0.953892,0.842408
0.655324,0.766127,0.953797,0.842323
0.65493,0.766049,0.953701,0.842239
0.654537,0.765971,0.953606,0.842155
0.654145,0.765893,0.953511,0.842071
0.653752,0.765815,0.953415,0.841987
0.65336,0.765737,0.95332,0.841902
0.652968,0.76566,0.953225,0.841818
0.652576,0.765582,0.953129,0.841734
0.652185,0.765504,0.953034,0.84165
0.651794,0.765426,0.952939,0.841566
0.651403,0.765348,0.952843,0.841481
0.651012,0.765271,0.952748,0.841397
0.650621,0.765193,0.952653,0.841313
0.650231,0.765115,0.952558,0.841229
0.649841,0.765037,0.952462,0.841145
0.649451,0.76496,0.952367,0.841061
0.649061,0.764882,0.952272,0.840977
0.648672,0.764804,0.952177,0.840893
0.648283,0.764726,0.952081,0.840809
0.647894,0.764649,0.951986,0.840724
0.647505,0.764571,0.951891,0.84064
0.647116,0.764493,0.951796,0.840556
0.646728,0.764416,0.951701,0.840472
0.64634,0.764338,0.951605,0.840388
0.645952,0.76426,0.95151,0.840304
0.645565,0.764183,0.951415,0.84022
0.645178,0.764105,0.95132,0.840136
0.644791,0.764027,0.951225,0.840052
0.644404,0.76395,0.95113,0.839968
0.644017,0.763872,0.951035,0.839884
0.643631,0.763794,0.95094,0.8398
0.643245,0.763717,0.950844,0.839716
0.642859,0.763639,0.950749,0.839632
0.642473,0.763561,0.950654,0.839548
0.642088,0.763484,0.950559,0.839464
0.641702,0.763406,0.950464,0.83938
0.641317,0.763329,0.950369,0.839296
0.640933,0.763251,0.950274,0.839212
0.640868,0.763173,0.950179,0.839128
0.640804,0.763096,0.978587,0.839045
0.64042,0.763018,0.978489,0.838961
0.640036,0.762941,0.978391,0.838877
0.639652,0.762863,0.978293,0.838793
0.639268,0.762786,0.978195,0.838709
0.638884,0.762708,0.978097,0.838625
0.638501,0.762631,0.978,0.838541
0.638118,0.762553,0.977902,0.838457
0.637735,0.762476,0.977804,0.838374
0.637353,0.762398,0.977706,0.83829
0.63697,0.762321,0.977608,0.838206
0.636588,0.762243,0.977511,0.838122
0.636206,0.762166,0.977413,0.838038
0.635824,0.762088,0.977315,0.837954
0.635443,0.762011,0.977217,0.837871
0.635062,0.761933,0.97712,0.837787
0.634681,0.761856,0.977022,0.837703
0.6343,0.761779,0.976924,0.837619
0.633919,0.761701,0.976827,0.837536
0.633539,0.761624,0.976729,0.837452
0.633159,0.761546,0.976631,0.837368
0.632779,0.761469,0.976534,0.837284
0.6324,0.761392,0.976436,0.837201
0.63202,0.761314,0.976338,0.837117
0.631641,0.761237,0.976241,0.837033
0.631262,0.761159,0.976143,0.836949
0.630883,0.761082,0.976045,0.836866
0.630505,0.761005,0.975948,0.836782
0.630126,0.760927,0.97585,0.836698
0.629748,0.76085,0.975753,0.836615
0.629371,0.760773,0.975655,0.836531
0.628993,0.760695,0.975557,0.836447
0.628616,0.760618,0.97546,0.836364
0.628239,0.760541,0.975362,0.83628
0.627862,0.760463,0.975265,0.836197
0.627485,0.760386,0.975167,0.836113
0.627108,0.760309,0.97507,0.836029
0.626732,0.760232,0.974972,0.835946
0.626356,0.760154,0.974875,0.835862
0.62598,0.760077,0.974777,0.835779
0.625605,0.76,0.97468,0.835695
0.62523,0.759923,0.974582,0.835611
0.624854,0.759845,0.974485,0.835528
0.62448,0.759768,0.974387,0.835444
0.624105,0.759691,0.97429,0.835361
0.62373,0.759614,0.974193,0.835277
0.623356,0.759537,0.974095,0.835194
0.623294,0.759459,0.973998,0.83511
0.623232,0.759382,1,0.835027
0.622858,0.759305,0.9999,0.834943
0.622484,0.759228,0.9998,0.83486
0.622111,0.759151,0.9997,0.834776
0.621737,0.759073,0.9996,0.834693
0.621364,0.758996,0.9995,0.834609
0.620992,0.758919,0.9994,0.834526
0.620619,0.758842,0.9993,0.834442
0.620247,0.758765,0.9992,0.834359
0.619875,0.758688,0.9991,0.834275
0.619503,0.758611,0.999,0.834192
0.619131,0.758534,0.998901,0.834109
0.618759,0.758457,0.998801,0.834025
0.618388,0.758379,0.998701,0.833942
0.618017,0.758302,0.998601,0.833858
0.617646,0.758225,0.998501,0.833775
0.617276,0.758148,0.998401,0.833692
0.616906,0.758071,0.998301,0.833608
0.616535,0.757994,0.998202,0.833525
0.616166,0.757917,0.998102,0.833441
0.615796,0.75784,0.998002,0.833358
0.615426,0.757763,0.997902,0.833275
0.615057,0.757686,0.997802,0.833191
0.614688,0.757609,0.997703,0.833108
0.614319,0.757532,0.997603,0.833025
0.613951,0.757455,0.997503,0.832942
0.613583,0.757378,0.997403,0.832858
0.613214,0.757301,0.997304,0.832775
0.612847,0.757224,0.997204,0.832692
0.612479,0.757147,0.997104,0.832608
0.612111,0.75707,0.997004,0.832525
0.611744,0.756993,0.996905,0.832442
0.611377,0.756916,0.996805,0.832359
0.61101,0.756839,0.996705,0.832275
0.610644,0.756763,0.996606,0.832192
0.610277,0.756686,0.996506,0.832109
0.609911,0.756609,0.996406,0.832026
0.609545,0.756532,0.996307,0.831943
0.60918,0.756455,0.996207,0.831859
0.608814,0.756378,0.996107,0.831776
0.608449,0.756301,0.996008,0.831693
0.608084,0.756224,0.995908,0.83161
0.607719,0.756147,0.995809,0.831527
0.607354,0.756071,0.995709,0.831444
0.607294,0.755994,0.995609,0.83136
0.607233,0.755917,1,0.831277
0.606869,0.75584,0.9999,0.831194
0.606505,0.755763,0.9998,0.831111
0.606141,0.755686,0.9997,0.831028
0.605777,0.75561,0.9996,0.830945
0.605414,0.755533,0.9995,0.830862
0.60505,0.755456,0.9994,0.830779
0.604687,0.755379,0.9993,0.830696
0.604325,0.755303,0.9992,0.830612
0.603962,0.755226,0.9991,0.830529
0.6036,0.755149,0.999,0.830446
0.603238,0.755072,0.998901,0.830363
0.602876,0.754996,0.998801,0.83028
0.602514,0.754919,0.998701,0.830197
0.602153,0.754842,0.998601,0.830114
0.601791,0.754765,0.998501,0.830031
0.60143,0.754689,0.998401,0.829948
0.601069,0.754612,0.998301,0.829865
0.600709,0.754535,0.998202,0.829782
0.600348,0.754459,0.998102,0.829699
0.599988,0.754382,0.998002,0.829616
0.599628,0.754305,0.997902,0.829533
0.599269,0.754229,0.997802,0.82945
0.598909,0.754152,0.997703,0.829367
0.59855,0.754075,0.997603,0.829284
0.598191,0.753999,0.997503,0.829202
0.597832,0.753922,0.997403,0.829119
0.597473,0.753845,0.997304,0.829036
0.597115,0.753769,0.997204,0.828953
0.596756,0.753692,0.997104,0.82887
0.596398,0.753616,0.997004,0.828787
0.59604,0.753539,0.996905,0.828704
0.595683,0.753462,0.996805,0.828621
0.595326,0.753386,0.996705,0.828538
0.594968,0.753309,0.996606,0.828456
0.594611,0.753233,0.996506,0.828373
0.594255,0.753156,0.996406,0.82829
0.593898,0.75308,0.996307,0.828207
0.593542,0.753003,0.996207,0.828124
0.593186,0.752927,0.996107,0.828041
0.59283,0.75285,0.996008,0.827959
0.592474,0.752773,0.995908,0.827876
0.592119,0.752697,0.995809,0.827793
0.591763,0.75262,0.995709,0.82771
0.591408,0.752544,0.995609,0.827627
0.591054,0.752468,0.99551,0.827545
0.590699,0.752391,0.99541,0.827462
0.590345,0.752315,0.995311,0.827379
0.590286,0.752238,0.995211,0.827296
0.590227,0.752162,1,0.827214
0.589872,0.752085,0.9999,0.827131
0.589519,0.752009,0.9998,0.827048
0.589165,0.751932,0.9997,0.826966
0.588811,0.751856,0.9996,0.826883
0.588458,0.75178,0.9995,0.8268
0.588105,0.751703,0.9994,0.826718
0.587752,0.751627,0.9993,0.826635
0.5874,0.75155,0.9992,0.826552
0.587047,0.751474,0.9991,0.82647
0.586695,0.751398,0.999,0.826387
0.586343,0.751321,0.998901,0.826304
0.585991,0.751245,0.998801,0.826222
0.58564,0.751168,0.998701,0.826139
0.585288,0.751092,0.998601,0.826056
0.584937,0.751016,0.998501,0.825974
0.584586,0.750939,0.998401,0.825891
0.584236,0.750863,0.998301,0.825809
0.583885,0.750787,0.998202,0.825726
0.583535,0.750711,0.998102,0.825643
0.583185,0.750634,0.998002,0.825561
0.582835,0.750558,0.997902,0.825478
0.582485,0.750482,0.997802,0.825396
0.582136,0.750405,0.997703,0.825313
0.581786,0.750329,0.997603,0.825231
0.581437,0.750253,0.997503,0.825148
0.581089,0.750177,0.997403,0.825066
0.58103,0.7501,0.997304,0.824983
0.580972,0.750024,1,0.824901
0.580624,0.749948,0.9999,0.824818
0.580275,0.749872,0.9998,0.824736
0.579927,0.749796,0.9997,0.824653
0.579579,0.749719,0.9996,0.824571
0.579232,0.749643,0.9995,0.824488
0.578884,0.749567,0.9994,0.824406
0.578537,0.749491,0.9993,0.824323
0.57819,0.749415,0.9992,0.824241
0.577843,0.749338,0.9991,0.824159
0.577496,0.749262,0.999,0.824076
0.57715,0.749186,0.998901,0.823994
0.576803,0.74911,0.998801,0.823911
0.576457,0.749034,0.998701,0.823829
0.576112,0.748958,0.998601,0.823747
0.575766,0.748882,0.998501,0.823664
0.57542,0.748805,0.998401,0.823582
0.575075,0.748729,0.998301,0.823499
0.57473,0.748653,0.998202,0.823417
0.574385,0.748577,0.998102,0.823335
0.574041,0.748501,0.998002,0.823252
0.573696,0.748425,0.997902,0.82317
0.573352,0.748349,0.997802,0.823088
0.573008,0.748273,0.997703,0.823005
0.572664,0.748197,0.997603,0.822923
0.572321,0.748121,0.997503,0.822841
0.571978,0.748045,0.997403,0.822759
0.571634,0.747969,0.997304,0.822676
0.571291,0.747893,0.997204,0.822594
0.570949,0.747817,0.997104,0.822512
0.570606,0.747741,0.997004,0.82243
0.570264,0.747665,0.996905,0.822347
0.569922,0.747589,0.996805,0.822265
0.56958,0.747513,0.996705,0.822183
0.569238,0.747437,0.996606,0.822101
0.568897,0.747361,0.996506,0.822018
0.568555,0.747285,0.996406,0.821936
0.568214,0.747209,0.996307,0.821854
0.567873,0.747133,0.996207,0.821772
0.567533,0.747057,0.996107,0.82169
0.567192,0.746981,0.996008,0.821607
0.566852,0.746905,0.995908,0.821525
0.566512,0.746829,0.995809,0.821443
0.566172,0.746753,0.995709,0.821361
0.565832,0.746678,0.995609,0.821279
0.565493,0.746602,0.99551,0.821197
0.565153,0.746526,0.99541,0.821115
0.564814,0.74645,0.995311,0.821033
0.564475,0.746374,0.995211,0.82095
0.564137,0.746298,0.995112,0.820868
0.563798,0.746222,0.995012,0.820786
0.56346,0.746146,0.994913,0.820704
0.563122,0.746071,0.994813,0.820622
0.562784,0.745995,0.994714,0.82054
0.562447,0.745919,0.994614,0.820458
0.562109,0.745843,0.994515,0.820376
0.561772,0.745767,0.994415,0.820294
0.561435,0.745692,0.994316,0.820212
0.561098,0.745616,0.994216,0.82013
0.560761,0.74554,0.994117,0.820048
0.560425,0.745464,0.994018,0.819966
0.560089,0.745389,0.993918,0.819884
0.559753,0.745313,0.993819,0.819802
0.559417,0.745237,0.993719,0.81972
0.559361,0.745161,0.99362,0.819638
0.559305,0.745086,1,0.819556
0.558969,0.74501,0.9999,0.819474
0.558634,0.744934,0.9998,0.819392
0.558299,0.744858,0.9997,0.81931
0.557964,0.744783,0.9996,0.819228
0.557629,0.744707,0.9995,0.819146
0.557295,0.744631,0.9994,0.819064
0.55696,0.744556,0.9993,0.818982
0.556626,0.74448,0.9992,0.818901
0.556292,0.744404,0.9991,0.818819
0.555958,0.744329,0.999,0.818737
0.555625,0.744253,0.998901,0.818655
0.555292,0.744177,0.998801,0.818573
0.554958,0.744102,0.998701,0.818491
0.554625,0.744026,0.998601,0.818409
0.554293,0.74395,0.998501,0.818327
0.55396,0.743875,0.998401,0.818246
0.553628,0.743799,0.998301,0.818164
0.553296,0.743724,0.998202,0.818082
0.552964,0.743648,0.998102,0.818
0.552632,0.743573,0.998002,0.817918
0.5523,0.743497,0.997902,0.817837
0.551969,0.743421,0.997802,0.817755
0.551638,0.743346,0.997703,0.817673
0.551307,0.74327,0.997603,0.817591
0.550976,0.743195,0.997503,0.81751
0.550646,0.743119,0.997403,0.817428
0.550315,0.743044,0.997304,0.817346
0.549985,0.742968,0.997204,0.817264
0.549655,0.742893,0.997104,0.817183
0.549325,0.742817,0.997004,0.817101
0.548996,0.742742,0.996905,0.817019
0.548666,0.742666,0.996805,0.816937
0.548337,0.742591,0.996705,0.816856
0.548008,0.742515,0.996606,0.816774
0.54768,0.74244,0.996506,0.816692
0.547351,0.742364,0.996406,0.816611
0.547023,0.742289,0.996307,0.816529
0.546694,0.742213,0.996207,0.816447
0.546366,0.742138,0.996107,0.816366
0.546039,0.742063,0.996008,0.816284
0.545711,0.741987,0.995908,0.816202
0.545384,0.741912,0.995809,0.816121
0.545056,0.741836,0.995709,0.816039
0.544729,0.741761,0.995609,0.815958
0.544403,0.741686,0.99551,0.815876
0.544076,0.74161,0.99541,0.815794
0.54375,0.741535,0.995311,0.815713
0.543423,0.741459,0.995211,0.815631
0.543097,0.741384,0.995112,0.81555
0.542771,0.741309,0.995012,0.815468
0.542446,0.741233,0.994913,0.815387
0.54212,0.741158,0.994813,0.815305
0.541795,0.741083,0.994714,0.815224
0.541741,0.741007,0.994614,0.815142
0.541687,0.740932,1,0.815061
0.541362,0.740857,0.9999,0.814979
0.541037,0.740781,0.9998,0.814898
0.540712,0.740706,0.9997,0.814816
0.540388,0.740631,0.9996,0.814735
0.540064,0.740556,0.9995,0.814653
0.53974,0.74048,0.9994,0.814572
0.539416,0.740405,0.9993,0.81449
