energy,productivity,fun,hunger
0.510674,0.861092,0.698575,0.652081
0.510623,0.861073,0.71946,0.652016
0.510316,0.861054,0.74097,0.651951
0.51001,0.861034,0.740896,0.651886
0.509704,0.861015,0.740821,0.651821
0.509399,0.860996,0.740747,0.651755
0.509093,0.860976,0.740673,0.65169
0.508788,0.860957,0.740599,0.651625
0.508482,0.860937,0.740525,0.65156
0.508177,0.860918,0.740451,0.651495
0.507872,0.860899,0.740377,0.65143
0.507568,0.860879,0.740303,0.651365
0.507263,0.86086,0.740229,0.651299
0.506959,0.860841,0.740155,0.651234
0.506655,0.860821,0.740081,0.651169
0.506351,0.860802,0.740007,0.651104
0.506047,0.860782,0.739933,0.651039
0.505743,0.860763,0.739859,0.650974
0.50544,0.860744,0.739785,0.650909
0.505137,0.860724,0.739711,0.650844
0.504834,0.860705,0.739637,0.650779
0.504531,0.860686,0.739563,0.650713
0.504228,0.860666,0.739489,0.650648
0.503925,0.860647,0.739415,0.650583
0.503623,0.860627,0.739341,0.650518
0.503321,0.860608,0.739267,0.650453
0.503019,0.860589,0.739193,0.650388
0.502717,0.860569,0.739119,0.650323
0.502416,0.86055,0.739046,0.650258
0.502114,0.860531,0.738972,0.650193
0.501813,0.860511,0.738898,0.650128
0.501512,0.860492,0.738824,0.650063
0.501211,0.860472,0.73875,0.649998
0.50091,0.860453,0.738676,0.649933
0.50061,0.860434,0.738602,0.649868
0.500309,0.860414,0.738528,0.649803
0.500009,0.860395,0.738455,0.649738
0.499709,0.860376,0.738381,0.649673
0.49941,0.860356,0.738307,0.649608
0.49911,0.860337,0.738233,0.649543
0.49881,0.860318,0.738159,0.649478
0.498511,0.860298,0.738085,0.649413
0.498461,0.860279,0.738012,0.649348
0.498411,0.860259,0.737938,0.649283
0.498362,0.86024,0.737864,0.649218
0.498312,0.860221,0.73779,0.649154
0.498262,0.860201,0.737716,0.649089
0.498212,0.860182,0.737643,0.649024
0.498162,0.860163,0.737569,0.648959
0.498113,0.860143,0.737495,0.648894
0.498063,0.860124,0.737421,0.648829
0.498013,0.860105,0.737348,0.648764
0.497963,0.860085,0.737274,0.648699
0.497913,0.860066,0.7372,0.648634
0.497864,0.860046,0.737126,0.64857
0.497814,0.860027,0.737053,0.648505
0.497764,0.860008,0.736979,0.64844
0.497714,0.859988,0.736905,0.648375
0.497664,0.859969,0.736832,0.64831
0.497615,0.85995,0.736758,0.648245
0.497565,0.85993,0.736684,0.64818
0.497515,0.859911,0.736611,0.648116
0.497465,0.859892,0.736537,0.648051
0.497416,0.859872,0.736463,0.647986
0.497366,0.859853,0.73639,0.647921
0.497316,0.859834,0.736316,0.647856
0.497266,0.859814,0.736242,0.647792
0.497217,0.859795,0.736169,0.647727
0.497167,0.859776,0.736095,0.647662
0.497117,0.859756,0.736022,0.647597
0.497068,0.859737,0.735948,0.647533
0.497018,0.859717,0.735874,0.647468
0.496968,0.859698,0.735801,0.647403
0.496918,0.859679,0.735727,0.647338
0.496869,0.859659,0.735654,0.647274
0.496819,0.85964,0.73558,0.647209
0.496769,0.859621,0.735506,0.647144
0.49672,0.859601,0.735433,0.647079
0.49667,0.859582,0.735359,0.647015
0.49662,0.859563,0.735286,0.64695
0.496571,0.859543,0.735212,0.646885
0.496521,0.859524,0.735139,0.646821
0.496471,0.859505,0.735065,0.646756
0.496422,0.859485,0.734992,0.646691
0.496372,0.859466,0.734918,0.646627
0.496322,0.859447,0.734845,0.646562
0.496273,0.859427,0.734771,0.646497
0.496223,0.859408,0.734698,0.646433
0.496174,0.859389,0.734624,0.646368
0.496124,0.859369,0.734551,0.646303
0.496074,0.85935,0.734477,0.646239
0.496025,0.859331,0.734404,0.646174
0.495975,0.859311,0.734331,0.64611
0.495926,0.859292,0.734257,0.646045
0.495876,0.859273,0.734184,0.64598
0.495826,0.859253,0.73411,0.645916
0.495777,0.859234,0.734037,0.645851
0.495727,0.859215,0.733963,0.645787
0.495678,0.859195,0.73389,0.645722
0.495628,0.859176,0.733817,0.645657
0.495578,0.859156,0.733743,0.645593
0.495529,0.859137,0.73367,0.645528
0.495479,0.859118,0.733597,0.645464
0.49543,0.859098,0.733523,0.645399
0.49538,0.859079,0.73345,0.645335
0.495331,0.85906,0.733376,0.64527
0.495281,0.85904,0.733303,0.645206
0.495232,0.859021,0.73323,0.645141
0.495182,0.859002,0.733156,0.645077
0.495133,0.858982,0.733083,0.645012
0.495083,0.858963,0.73301,0.644947
0.495034,0.858944,0.732937,0.644883
0.494984,0.858924,0.732863,0.644819
0.494935,0.858905,0.73279,0.644754
0.494885,0.858886,0.732717,0.64469
0.494836,0.858866,0.732643,0.644625
0.494786,0.858847,0.73257,0.644561
0.494737,0.858828,0.732497,0.644496
0.494687,0.858808,0.732424,0.644432
0.494638,0.858789,0.73235,0.644367
0.494588,0.85877,0.732277,0.644303
0.494539,0.85875,0.732204,0.644238
0.494489,0.858731,0.732131,0.644174
0.49444,0.858712,0.732058,0.64411
0.49439,0.858693,0.731984,0.644045
0.494341,0.858673,0.731911,0.643981
0.494292,0.858654,0.731838,0.643916
0.494242,0.858635,0.731765,0.643852
0.494193,0.858615,0.731692,0.643788
0.494143,0.858596,0.731618,0.643723
0.494094,0.858577,0.731545,0.643659
0.494044,0.858557,0.731472,0.643594
0.493995,0.858538,0.731399,0.64353
0.493946,0.858519,0.731326,0.643466
0.493896,0.858499,0.731253,0.643401
0.493847,0.85848,0.73118,0.643337
0.493798,0.858461,0.731106,0.643273
0.493748,0.858441,0.731033,0.643208
0.493699,0.858422,0.73096,0.643144
0.493649,0.858403,0.730887,0.64308
0.4936,0.858383,0.730814,0.643015
0.493551,0.858364,0.730741,0.642951
0.493501,0.858345,0.730668,0.642887
0.493452,0.858325,0.730595,0.642823
0.493403,0.858306,0.730522,0.642758
0.493353,0.858287,0.730449,0.642694
0.493304,0.858267,0.730376,0.64263
0.493255,0.858248,0.730303,0.642565
0.493205,0.858229,0.73023,0.642501
0.493156,0.858209,0.730157,0.642437
0.493107,0.85819,0.730084,0.642373
0.493057,0.858171,0.730011,0.642308
0.493008,0.858152,0.729938,0.642244
0.492959,0.858132,0.729865,0.64218
0.492909,0.858113,0.729792,0.642116
0.49286,0.858094,0.729719,0.642052
0.492811,0.858074,0.729646,0.641987
0.492762,0.858055,0.729573,0.641923
0.492712,0.858036,0.7295,0.641859
0.492663,0.858016,0.729427,0.641795
0.492614,0.857997,0.729354,0.641731
0.492565,0.857978,0.729281,0.641666
0.492515,0.857958,0.729208,0.641602
0.492466,0.857939,0.729135,0.641538
0.492417,0.85792,0.729062,0.641474
0.492368,0.8579,0.728989,0.64141
0.492318,0.857881,0.728916,0.641346
0.492269,0.857862,0.728843,0.641282
0.49222,0.857843,0.72877,0.641217
0.492171,0.857823,0.728698,0.641153
0.492121,0.857804,0.728625,0.641089
0.492072,0.857785,0.728552,0.641025
0.492023,0.857765,0.728479,0.640961
0.491974,0.857746,0.728406,0.640897
0.491925,0.857727,0.728333,0.640833
0.491875,0.857707,0.72826,0.640769
0.491826,0.857688,0.728188,0.640705
0.491777,0.857669,0.728115,0.640641
0.491728,0.857649,0.728042,0.640577
0.491679,0.85763,0.727969,0.640512
0.491629,0.857611,0.727896,0.640448
0.49158,0.857592,0.727824,0.640384
0.491531,0.857572,0.727751,0.64032
0.491482,0.857553,0.727678,0.640256
0.491433,0.857534,0.727605,0.640192
0.491384,0.857514,0.727533,0.640128
0.491335,0.857495,0.72746,0.640064
0.491285,0.857476,0.727387,0.64
0.491236,0.857456,0.727314,0.639936
0.491187,0.857437,0.727242,0.639872
0.491138,0.857418,0.727169,0.639808
0.491089,0.857399,0.727096,0.639744
0.49104,0.857379,0.727023,0.63968
0.490991,0.85736,0.726951,0.639616
0.490942,0.857341,0.726878,0.639552
0.490893,0.857321,0.726805,0.639488
0.490843,0.857302,0.726733,0.639424
0.490794,0.857283,0.72666,0.639361
0.490745,0.857263,0.726587,0.639297
0.490696,0.857244,0.726515,0.639233
0.490647,0.857225,0.726442,0.639169
0.490598,0.857206,0.726369,0.639105
0.490549,0.857186,0.726297,0.639041
0.4905,0.857167,0.726224,0.638977
0.490451,0.857148,0.726151,0.638913
0.490402,0.857128,0.726079,0.638849
0.490353,0.857109,0.726006,0.638785
0.490304,0.85709,0.725934,0.638721
0.490255,0.857071,0.725861,0.638658
0.490206,0.857051,0.725788,0.638594
0.490157,0.857032,0.725716,0.63853
0.490108,0.857013,0.725643,0.638466
0.490059,0.856993,0.725571,0.638402
0.49001,0.856974,0.725498,0.638338
0.489961,0.856955,0.725426,0.638274
0.489912,0.856936,0.725353,0.638211
0.489863,0.856916,0.725281,0.638147
0.489814,0.856897,0.725208,0.638083
0.489765,0.856878,0.725136,0.638019
0.489716,0.856858,0.725063,0.637955
0.489667,0.856839,0.724991,0.637892
0.489618,0.85682,0.724918,0.637828
0.489569,0.856801,0.724846,0.637764
0.48952,0.856781,0.724773,0.6377
0.489471,0.856762,0.724701,0.637636
0.489422,0.856743,0.724628,0.637573
0.489373,0.856723,0.724556,0.637509
0.489324,0.856704,0.724483,0.637445
0.489275,0.856685,0.724411,0.637381
0.489226,0.856666,0.724338,0.637318
0.489177,0.856646,0.724266,0.637254
0.489128,0.856627,0.724193,0.63719
0.48908,0.856608,0.724121,0.637127
0.489031,0.856588,0.724049,0.637063
0.488982,0.856569,0.723976,0.636999
0.488933,0.85655,0.723904,0.636935
0.488884,0.856531,0.723831,0.636872
0.488835,0.856511,0.723759,0.636808
0.488786,0.856492,0.723687,0.636744
0.488737,0.856473,0.723614,0.636681
0.488688,0.856453,0.723542,0.636617
0.48864,0.856434,0.72347,0.636553
0.488591,0.856415,0.723397,0.63649
0.488542,0.856396,0.723325,0.636426
0.488493,0.856376,0.723253,0.636362
0.488444,0.856357,0.72318,0.636299
0.488395,0.856338,0.723108,0.636235
0.488346,0.856319,0.723036,0.636172
0.488298,0.856299,0.722963,0.636108
0.488249,0.85628,0.722891,0.636044
0.4882,0.856261,0.722819,0.635981
0.488151,0.856241,0.722746,0.635917
0.488102,0.856222,0.722674,0.635854
0.488053,0.856203,0.722602,0.63579
0.488005,0.856184,0.72253,0.635726
0.487956,0.856164,0.722457,0.635663
0.487907,0.856145,0.722385,0.635599
0.487858,0.856126,0.722313,0.635536
0.487809,0.856107,0.722241,0.635472
0.487761,0.856087,0.722168,0.635409
0.487712,0.856068,0.722096,0.635345
0.487663,0.856049,0.722024,0.635281
0.487614,0.856029,0.721952,0.635218
0.487566,0.85601,0.72188,0.635154
0.487517,0.855991,0.721807,0.635091
0.487468,0.855972,0.721735,0.635027
0.487419,0.855952,0.721663,0.634964
0.487371,0.855933,0.721591,0.6349
0.487322,0.855914,0.721519,0.634837
0.487273,0.855895,0.721447,0.634773
0.487224,0.855875,0.721374,0.63471
0.487176,0.855856,0.721302,0.634646
0.487127,0.855837,0.72123,0.634583
0.487078,0.855818,0.721158,0.63452
0.48703,0.855798,0.721086,0.634456
0.486981,0.855779,0.721014,0.634393
0.486932,0.85576,0.720942,0.634329
0.486883,0.855741,0.72087,0.634266
0.486835,0.855721,0.720798,0.634202
0.486786,0.855702,0.720725,0.634139
0.486737,0.855683,0.720653,0.634076
0.486689,0.855663,0.720581,0.634012
0.48664,0.855644,0.720509,0.633949
0.486591,0.855625,0.720437,0.633885
0.486543,0.855606,0.720365,0.633822
0.486494,0.855586,0.720293,0.633759
0.486445,0.855567,0.720221,0.633695
0.486397,0.855548,0.720149,0.633632
0.486348,0.855529,0.720077,0.633568
0.4863,0.855509,0.720005,0.633505
0.486251,0.85549,0.719933,0.633442
0.486202,0.855471,0.719861,0.633378
0.486154,0.855452,0.719789,0.633315
0.486105,0.855432,0.719717,0.633252
0.486056,0.855413,0.719645,0.633188
0.486008,0.855394,0.719573,0.633125
0.485959,0.855375,0.719501,0.633062
0.485911,0.855355,0.719429,0.632998
0.485862,0.855336,0.719357,0.632935
0.485813,0.855317,0.719285,0.632872
0.485765,0.855298,0.719213,0.632809
0.485716,0.855278,0.719142,0.632745
0.485668,0.855259,0.71907,0.632682
0.485619,0.85524,0.718998,0.632619
0.485571,0.855221,0.718926,0.632555
0.485522,0.855201,0.718854,0.632492
0.485474,0.855182,0.718782,0.632429
0.485425,0.855163,0.71871,0.632366
0.485376,0.855144,0.718638,0.632302
0.485328,0.855124,0.718566,0.632239
0.485279,0.855105,0.718495,0.632176
0.485231,0.855086,0.718423,0.632113
0.485182,0.855067,0.718351,0.63205
0.485134,0.855047,0.718279,0.631986
0.485085,0.855028,0.718207,0.631923
0.485037,0.855009,0.718135,0.63186
0.484988,0.85499,0.718064,0.631797
0.48494,0.85497,0.717992,0.631734
0.484891,0.854951,0.71792,0.63167
0.484843,0.854932,0.717848,0.631607
0.484794,0.854913,0.717776,0.631544
0.484746,0.854893,0.717705,0.631481
0.484697,0.854874,0.717633,0.631418
0.484649,0.854855,0.717561,0.631355
0.4846,0.854836,0.717489,0.631292
0.484552,0.854816,0.717418,0.631228
0.484503,0.854797,0.717346,0.631165
0.484455,0.854778,0.717274,0.631102
0.484407,0.854759,0.717202,0.631039
0.484358,0.85474,0.717131,0.630976
0.48431,0.85472,0.717059,0.630913
0.484261,0.854701,0.716987,0.63085
0.484213,0.854682,0.716916,0.630787
0.484164,0.854663,0.716844,0.630724
0.484116,0.854643,0.716772,0.630661
0.484068,0.854624,0.7167,0.630597
0.484019,0.854605,0.716629,0.630534
0.483971,0.854586,0.716557,0.630471
0.483922,0.854566,0.716485,0.630408
0.483874,0.854547,0.716414,0.630345
0.483826,0.854528,0.716342,0.630282
0.483777,0.854509,0.716271,0.630219
0.483729,0.854489,0.716199,0.630156
0.48368,0.85447,0.716127,0.630093
0.483632,0.854451,0.716056,0.63003
0.483584,0.854432,0.715984,0.629967
0.483535,0.854413,0.715913,0.629904
0.483487,0.854393,0.715841,0.629841
0.483439,0.854374,0.715769,0.629778
0.48339,0.854355,0.715698,0.629715
0.483342,0.854336,0.715626,0.629652
0.483294,0.854316,0.715555,0.629589
0.483245,0.854297,0.715483,0.629526
0.483197,0.854278,0.715412,0.629463
0.483149,0.854259,0.71534,0.6294
0.4831,0.854239,0.715268,0.629338
0.483052,0.85422,0.715197,0.629275
0.483004,0.854201,0.715125,0.629212
0.482955,0.854182,0.715054,0.629149
0.482907,0.854163,0.714982,0.629086
0.482859,0.854143,0.714911,0.629023
0.482811,0.854124,0.714839,0.62896
0.482762,0.854105,0.714768,0.628897
0.482714,0.854086,0.714696,0.628834
0.482666,0.854066,0.714625,0.628771
0.482618,0.854047,0.714553,0.628708
0.482569,0.854028,0.714482,0.628646
0.482521,0.854009,0.714411,0.628583
0.482473,0.85399,0.714339,0.62852
0.482424,0.85397,0.714268,0.628457
0.482376,0.853951,0.714196,0.628394
0.482328,0.853932,0.714125,0.628331
0.48228,0.853913,0.714053,0.628268
0.482232,0.853893,0.713982,0.628206
0.482183,0.853874,0.713911,0.628143
0.482135,0.853855,0.713839,0.62808
0.482087,0.853836,0.713768,0.628017
0.482039,0.853817,0.713696,0.627954
0.48199,0.853797,0.713625,0.627892
0.481942,0.853778,0.713554,0.627829
0.481894,0.853759,0.713482,0.627766
0.481846,0.85374,0.713411,0.627703
0.481798,0.85372,0.71334,0.62764
0.48175,0.853701,0.713268,0.627578
0.481701,0.853682,0.713197,0.627515
0.481653,0.853663,0.713126,0.627452
0.481605,0.853644,0.713054,0.627389
0.481557,0.853624,0.712983,0.627327
0.481509,0.853605,0.712912,0.627264
0.481461,0.853586,0.712841,0.627201
0.481412,0.853567,0.712769,0.627139
0.481364,0.853548,0.712698,0.627076
0.481316,0.853528,0.712627,0.627013
0.481268,0.853509,0.712555,0.62695
0.48122,0.85349,0.712484,0.626888
0.481172,0.853471,0.712413,0.626825
0.481124,0.853452,0.712342,0.626762
0.481076,0.853432,0.71227,0.6267
0.481027,0.853413,0.712199,0.626637
0.480979,0.853394,0.712128,0.626574
0.480931,0.853375,0.712057,0.626512
0.480883,0.853355,0.711986,0.626449
0.480835,0.853336,0.711914,0.626386
0.480787,0.853317,0.711843,0.626324
0.480739,0.853298,0.711772,0.626261
0.480691,0.853279,0.711701,0.626199
0.480643,0.853259,0.71163,0.626136
0.480595,0.85324,0.711559,0.626073
0.480547,0.853221,0.711487,0.626011
0.480499,0.853202,0.711416,0.625948
0.48045,0.853183,0.711345,0.625885
0.480402,0.853163,0.711274,0.625823
0.480354,0.853144,0.711203,0.62576
0.480306,0.853125,0.711132,0.625698
0.480258,0.853106,0.711061,0.625635
0.48021,0.853087,0.710989,0.625573
0.480162,0.853067,0.710918,0.62551
0.480114,0.853048,0.710847,0.625447
0.480066,0.853029,0.710776,0.625385
0.480018,0.85301,0.710705,0.625322
0.47997,0.852991,0.710634,0.62526
0.479922,0.852971,0.710563,0.625197
0.479874,0.852952,0.710492,0.625135
0.479826,0.852933,0.710421,0.625072
0.479778,0.852914,0.73166,0.62501
0.47949,0.852895,0.731587,0.624947
0.479203,0.852875,0.731514,0.624885
0.478915,0.852856,0.731441,0.624822
0.478628,0.852837,0.731368,0.62476
0.478341,0.852818,0.731295,0.624697
0.478054,0.852799,0.731221,0.624635
0.477767,0.852779,0.731148,0.624572
0.47748,0.85276,0.731075,0.62451
0.477194,0.852741,0.731002,0.624448
0.476908,0.852722,0.730929,0.624385
0.476622,0.852703,0.730856,0.624323
0.476336,0.852683,0.730783,0.62426
0.47605,0.852664,0.73071,0.624198
0.475764,0.852645,0.730637,0.624135
0.475479,0.852626,0.730564,0.624073
0.475193,0.852607,0.730491,0.624011
0.474908,0.852588,0.730417,0.623948
0.474623,0.852568,0.730344,0.623886
0.474339,0.852549,0.730271,0.623823
0.474054,0.85253,0.730198,0.623761
0.47377,0.852511,0.730125,0.623699
0.473485,0.852492,0.730052,0.623636
0.473438,0.852472,0.729979,0.623574
0.473391,0.852453,0.729906,0.623512
0.473343,0.852434,0.729833,0.623449
0.473296,0.852415,0.72976,0.623387
0.473249,0.852396,0.729687,0.623324
0.473201,0.852376,0.729614,0.623262
0.473154,0.852357,0.729541,0.6232
0.473107,0.852338,0.729469,0.623137
0.47306,0.852319,0.729396,0.623075
0.473012,0.8523,0.729323,0.623013
0.472965,0.852281,0.72925,0.622951
0.472918,0.852261,0.729177,0.622888
0.47287,0.852242,0.729104,0.622826
0.472823,0.852223,0.729031,0.622764
0.472776,0.852204,0.728958,0.622701
0.472728,0.852185,0.728885,0.622639
0.472681,0.852165,0.728812,0.622577
0.472634,0.852146,0.728739,0.622515
0.472587,0.852127,0.728667,0.622452
0.472539,0.852108,0.728594,0.62239
0.472492,0.852089,0.728521,0.622328
0.472445,0.85207,0.728448,0.622266
0.472398,0.85205,0.728375,0.622203
0.47235,0.852031,0.728302,0.622141
0.472303,0.852012,0.728229,0.622079
0.472256,0.851993,0.728157,0.622017
0.472209,0.851974,0.728084,0.621955
0.472162,0.851954,0.728011,0.621892
0.472114,0.851935,0.727938,0.62183
0.472067,0.851916,0.727865,0.621768
0.47202,0.851897,0.727793,0.621706
0.471973,0.851878,0.72772,0.621644
0.471925,0.851859,0.727647,0.621582
0.471878,0.851839,0.727574,0.621519
0.471831,0.85182,0.727502,0.621457
0.471784,0.851801,0.727429,0.621395
0.471737,0.851782,0.727356,0.621333
0.47169,0.851763,0.727283,0.621271
0.471642,0.851744,0.727211,0.621209
0.471595,0.851724,0.727138,0.621147
0.471548,0.851705,0.727065,0.621084
0.471501,0.851686,0.726992,0.621022
0.471454,0.851667,0.72692,0.62096
0.471407,0.851648,0.726847,0.620898
0.471359,0.851629,0.726774,0.620836
0.471312,0.851609,0.726702,0.620774
0.471265,0.85159,0.726629,0.620712
0.471218,0.851571,0.726556,0.62065
0.471171,0.851552,0.726484,0.620588
0.471124,0.851533,0.726411,0.620526
0.471077,0.851514,0.726338,0.620464
0.47103,0.851494,0.726266,0.620402
0.470983,0.851475,0.726193,0.62034
0.470935,0.851456,0.726121,0.620277
0.470888,0.851437,0.726048,0.620215
0.470841,0.851418,0.725975,0.620153
0.470794,0.851399,0.725903,0.620091
0.470747,0.851379,0.72583,0.620029
0.4707,0.85136,0.725758,0.619967
0.470653,0.851341,0.725685,0.619905
0.470606,0.851322,0.725612,0.619843
0.470559,0.851303,0.72554,0.619781
0.470512,0.851284,0.725467,0.619719
0.470465,0.851264,0.725395,0.619657
0.470418,0.851245,0.725322,0.619596
0.470371,0.851226,0.72525,0.619534
0.470324,0.851207,0.725177,0.619472
0.470277,0.851188,0.725105,0.61941
0.47023,0.851169,0.725032,0.619348
0.470182,0.851149,0.72496,0.619286
0.470135,0.85113,0.724887,0.619224
0.470088,0.851111,0.724815,0.619162
0.470041,0.851092,0.724742,0.6191
0.469994,0.851073,0.72467,0.619038
0.469947,0.851054,0.724597,0.618976
0.4699,0.851035,0.724525,0.618914
0.469853,0.851015,0.724452,0.618852
0.469806,0.850996,0.72438,0.618791
0.46976,0.850977,0.724307,0.618729
0.469713,0.850958,0.724235,0.618667
0.469666,0.850939,0.724163,0.618605
0.469619,0.85092,0.72409,0.618543
0.469572,0.8509,0.724018,0.618481
0.469525,0.850881,0.723945,0.618419
0.469478,0.850862,0.723873,0.618358
0.469431,0.850843,0.723801,0.618296
0.469384,0.850824,0.723728,0.618234
0.469337,0.850805,0.723656,0.618172
0.46929,0.850786,0.723583,0.61811
0.469243,0.850766,0.723511,0.618048
0.469196,0.850747,0.723439,0.617987
0.469149,0.850728,0.723366,0.617925
0.469102,0.850709,0.723294,0.617863
0.469055,0.85069,0.723222,0.617801
0.469008,0.850671,0.723149,0.617739
0.468962,0.850652,0.723077,0.617678
0.468915,0.850632,0.723005,0.617616
0.468868,0.850613,0.722932,0.617554
0.468821,0.850594,0.72286,0.617492
0.468774,0.850575,0.722788,0.617431
0.468727,0.850556,0.722716,0.617369
0.46868,0.850537,0.722643,0.617307
0.468633,0.850518,0.722571,0.617245
0.468587,0.850498,0.722499,0.617184
0.46854,0.850479,0.722427,0.617122
0.468493,0.85046,0.722354,0.61706
0.468446,0.850441,0.722282,0.616999
0.468399,0.850422,0.72221,0.616937
0.468352,0.850403,0.722138,0.616875
0.468305,0.850384,0.722065,0.616813
0.468259,0.850364,0.721993,0.616752
0.468212,0.850345,0.721921,0.61669
0.468165,0.850326,0.721849,0.616628
0.468118,0.850307,0.721777,0.616567
