energy,productivity,fun,hunger
0.977324,0.582761,0.722119,0.706916
0.977226,0.582691,0.722047,0.706845
0.97664,0.582622,0.721975,0.706775
0.976054,0.582552,0.721902,0.706704
0.975468,0.582483,0.72183,0.706633
0.974883,0.582413,0.721758,0.706563
0.974298,0.582344,0.721686,0.706492
0.973714,0.582274,0.721614,0.706421
0.973129,0.582205,0.721542,0.706351
0.972546,0.582135,0.721469,0.70628
0.971962,0.582066,0.721397,0.706209
0.971379,0.581996,0.721325,0.706139
0.970796,0.581927,0.721253,0.706068
0.970214,0.581857,0.721181,0.705998
0.969632,0.581788,0.721109,0.705927
0.96905,0.581718,0.721037,0.705856
0.968469,0.581649,0.720965,0.705786
0.967887,0.58158,0.720892,0.705715
0.967307,0.58151,0.72082,0.705645
0.966726,0.581441,0.720748,0.705574
0.966146,0.581371,0.720676,0.705504
0.965567,0.581302,0.720604,0.705433
0.964988,0.581233,0.720532,0.705362
0.964409,0.581163,0.72046,0.705292
0.96383,0.581094,0.720388,0.705221
0.963252,0.581024,0.720316,0.705151
0.962674,0.580955,0.720244,0.70508
0.962096,0.580886,0.720172,0.70501
0.961519,0.580816,0.7201,0.704939
0.960942,0.580747,0.720028,0.704869
0.960366,0.580678,0.719956,0.704798
0.95979,0.580608,0.719884,0.704728
0.959214,0.580539,0.719812,0.704657
0.958638,0.58047,0.71974,0.704587
0.958063,0.5804,0.719668,0.704517
0.957488,0.580331,0.719596,0.704446
0.956914,0.580262,0.719524,0.704376
0.95634,0.580193,0.719452,0.704305
0.955766,0.580123,0.71938,0.704235
0.955193,0.580054,0.719308,0.704164
0.95462,0.579985,0.719236,0.704094
0.954047,0.579916,0.719164,0.704024
0.953474,0.579846,0.719092,0.703953
0.952902,0.579777,0.71902,0.703883
0.952331,0.579708,0.718949,0.703812
0.951759,0.579639,0.718877,0.703742
0.951188,0.57957,0.718805,0.703672
0.951093,0.5795,0.718733,0.703601
0.950998,0.579431,0.718661,0.703531
0.950903,0.579362,0.718589,0.70346
0.950808,0.579293,0.718517,0.70339
0.950713,0.579224,0.718445,0.70332
0.950618,0.579155,0.718374,0.703249
0.950523,0.579086,0.718302,0.703179
0.950428,0.579016,0.71823,0.703109
0.950333,0.578947,0.718158,0.703039
0.950238,0.578878,0.718086,0.702968
0.950143,0.578809,0.718015,0.702898
0.950048,0.57874,0.717943,0.702828
0.949953,0.578671,0.717871,0.702757
0.949858,0.578602,0.717799,0.702687
0.949763,0.578533,0.717727,0.702617
0.949668,0.578464,0.717656,0.702547
0.949573,0.578395,0.717584,0.702476
0.949478,0.578326,0.717512,0.702406
0.949383,0.578257,0.71744,0.702336
0.949288,0.578188,0.717369,0.702266
0.949193,0.578119,0.717297,0.702195
0.949098,0.578049,0.717225,0.702125
0.949003,0.57798,0.717153,0.702055
0.948908,0.577912,0.717082,0.701985
0.948813,0.577843,0.71701,0.701914
0.948718,0.577774,0.716938,0.701844
0.948623,0.577705,0.716867,0.701774
0.948529,0.577636,0.716795,0.701704
0.948434,0.577567,0.716723,0.701634
0.948339,0.577498,0.716652,0.701564
0.948244,0.577429,0.71658,0.701493
0.948149,0.57736,0.716508,0.701423
0.948054,0.577291,0.716437,0.701353
0.94796,0.577222,0.716365,0.701283
0.947865,0.577153,0.716293,0.701213
0.94777,0.577084,0.716222,0.701143
0.947675,0.577015,0.71615,0.701073
0.94758,0.576946,0.716078,0.701003
0.947486,0.576878,0.716007,0.700932
0.947391,0.576809,0.715935,0.700862
0.947296,0.57674,0.715864,0.700792
0.947202,0.576671,0.715792,0.700722
0.947107,0.576602,0.71572,0.700652
0.947012,0.576533,0.715649,0.700582
0.946917,0.576465,0.715577,0.700512
0.946823,0.576396,0.715506,0.700442
0.946728,0.576327,0.715434,0.700372
0.946633,0.576258,0.715363,0.700302
0.946539,0.576189,0.715291,0.700232
0.946444,0.576121,0.71522,0.700162
0.946349,0.576052,0.715148,0.700092
0.946255,0.575983,0.715077,0.700022
0.94616,0.575914,0.715005,0.699952
0.946066,0.575846,0.714934,0.699882
0.945971,0.575777,0.714862,0.699812
0.945876,0.575708,0.714791,0.699742
0.945782,0.575639,0.714719,0.699672
0.945687,0.575571,0.714648,0.699602
0.945593,0.575502,0.714576,0.699532
0.945498,0.575433,0.714505,0.699462
0.945403,0.575365,0.714433,0.699392
0.945309,0.575296,0.714362,0.699322
0.945214,0.575227,0.71429,0.699252
0.94512,0.575158,0.714219,0.699182
0.945025,0.57509,0.714147,0.699112
0.944931,0.575021,0.714076,0.699042
0.944836,0.574953,0.714005,0.698972
0.944742,0.574884,0.713933,0.698903
0.944647,0.574815,0.713862,0.698833
0.944553,0.574747,0.71379,0.698763
0.944458,0.574678,0.713719,0.698693
0.944364,0.574609,0.713648,0.698623
0.94427,0.574541,0.713576,0.698553
0.944175,0.574472,0.713505,0.698483
0.944081,0.574404,0.713434,0.698414
0.943986,0.574335,0.713362,0.698344
0.943892,0.574267,0.713291,0.698274
0.943798,0.574198,0.71322,0.698204
0.943703,0.57413,0.713148,0.698134
0.943609,0.574061,0.713077,0.698064
0.943514,0.573992,0.713006,0.697995
0.94342,0.573924,0.712934,0.697925
0.943326,0.573855,0.712863,0.697855
0.943231,0.573787,0.712792,0.697785
0.943137,0.573718,0.712721,0.697715
0.943043,0.57365,0.712649,0.697646
0.942948,0.573581,0.712578,0.697576
0.942854,0.573513,0.712507,0.697506
0.94276,0.573445,0.712435,0.697436
0.942666,0.573376,0.712364,0.697367
0.942571,0.573308,0.712293,0.697297
0.942477,0.573239,0.712222,0.697227
0.942383,0.573171,0.712151,0.697157
0.942289,0.573102,0.712079,0.697088
0.942194,0.573034,0.712008,0.697018
0.9421,0.572966,0.711937,0.696948
0.942006,0.572897,0.711866,0.696879
0.941912,0.572829,0.711795,0.696809
0.941818,0.57276,0.711723,0.696739
0.941723,0.572692,0.711652,0.69667
0.941629,0.572624,0.711581,0.6966
0.941535,0.572555,0.71151,0.69653
0.941441,0.572487,0.711439,0.696461
0.941347,0.572419,0.711368,0.696391
0.941253,0.57235,0.711296,0.696321
0.941158,0.572282,0.711225,0.696252
0.941064,0.572214,0.711154,0.696182
0.94097,0.572145,0.711083,0.696112
0.940876,0.572077,0.711012,0.696043
0.940782,0.572009,0.710941,0.695973
0.940688,0.57194,0.71087,0.695904
0.940594,0.571872,0.710799,0.695834
0.9405,0.571804,0.710728,0.695764
0.940406,0.571736,0.710657,0.695695
0.940312,0.571667,0.710585,0.695625
0.940218,0.571599,0.710514,0.695556
0.940124,0.571531,0.710443,0.695486
0.94003,0.571463,0.710372,0.695417
0.939936,0.571395,0.73161,0.695347
0.939372,0.571326,0.731537,0.695278
0.938808,0.571258,0.731464,0.695208
0.938245,0.57119,0.731391,0.695139
0.937682,0.571122,0.731318,0.695069
0.93712,0.571054,0.731245,0.694999
0.936557,0.570985,0.731171,0.69493
0.935995,0.570917,0.731098,0.69486
0.935434,0.570849,0.731025,0.694791
0.934873,0.570781,0.730952,0.694722
0.934312,0.570713,0.730879,0.694652
0.933751,0.570645,0.730806,0.694583
0.933191,0.570577,0.730733,0.694513
0.932631,0.570508,0.73066,0.694444
0.932072,0.57044,0.730587,0.694374
0.931512,0.570372,0.730514,0.694305
0.930954,0.570304,0.730441,0.694235
0.930395,0.570236,0.730368,0.694166
0.929837,0.570168,0.730295,0.694097
0.929279,0.5701,0.730222,0.694027
0.928721,0.570032,0.730148,0.693958
0.928164,0.569964,0.730075,0.693888
0.927607,0.569896,0.730002,0.693819
0.927051,0.569828,0.729929,0.69375
0.926495,0.56976,0.729856,0.69368
0.925939,0.569692,0.729783,0.693611
0.925383,0.569624,0.729711,0.693541
0.924828,0.569556,0.729638,0.693472
0.924273,0.569488,0.729565,0.693403
0.923719,0.56942,0.729492,0.693333
0.923165,0.569352,0.729419,0.693264
0.922611,0.569284,0.729346,0.693195
0.922057,0.569216,0.729273,0.693125
0.921504,0.569148,0.7292,0.693056
0.920951,0.56908,0.729127,0.692987
0.920399,0.569012,0.729054,0.692918
0.919846,0.568944,0.728981,0.692848
0.919295,0.568876,0.728908,0.692779
0.918743,0.568808,0.728835,0.69271
0.918192,0.56874,0.728762,0.69264
0.917641,0.568673,0.72869,0.692571
0.91709,0.568605,0.728617,0.692502
0.91654,0.568537,0.728544,0.692433
0.91599,0.568469,0.728471,0.692363
0.915441,0.568401,0.728398,0.692294
0.914892,0.568333,0.728325,0.692225
0.914343,0.568265,0.728252,0.692156
0.913794,0.568198,0.72818,0.692086
0.913246,0.56813,0.728107,0.692017
0.912698,0.568062,0.728034,0.691948
0.91215,0.567994,0.727961,0.691879
0.911603,0.567926,0.727888,0.69181
0.911056,0.567859,0.727816,0.69174
0.91051,0.567791,0.727743,0.691671
0.909963,0.567723,0.72767,0.691602
0.909418,0.567655,0.727597,0.691533
0.908872,0.567587,0.727525,0.691464
0.908327,0.56752,0.727452,0.691395
0.908236,0.567452,0.727379,0.691326
0.908145,0.567384,0.727306,0.691256
0.908054,0.567316,0.727234,0.691187
0.907963,0.567249,0.727161,0.691118
0.907873,0.567181,0.727088,0.691049
0.907782,0.567113,0.727015,0.69098
0.907691,0.567046,0.726943,0.690911
0.9076,0.566978,0.72687,0.690842
0.907509,0.56691,0.726797,0.690773
0.907419,0.566843,0.726725,0.690704
0.907328,0.566775,0.726652,0.690635
0.907237,0.566707,0.726579,0.690565
0.907147,0.56664,0.726507,0.690496
0.907056,0.566572,0.726434,0.690427
0.906965,0.566504,0.726361,0.690358
0.906874,0.566437,0.726289,0.690289
0.906784,0.566369,0.726216,0.69022
0.906693,0.566301,0.726143,0.690151
0.906602,0.566234,0.726071,0.690082
0.906512,0.566166,0.725998,0.690013
0.906421,0.566099,0.725926,0.689944
0.90633,0.566031,0.725853,0.689875
0.90624,0.565964,0.725781,0.689806
0.906149,0.565896,0.725708,0.689737
0.906059,0.565828,0.725635,0.689668
0.905968,0.565761,0.725563,0.689599
0.905877,0.565693,0.72549,0.68953
0.905787,0.565626,0.725418,0.689461
0.905696,0.565558,0.725345,0.689392
0.905606,0.565491,0.725273,0.689324
0.905515,0.565423,0.7252,0.689255
0.905425,0.565356,0.725128,0.689186
0.905334,0.565288,0.725055,0.689117
0.905243,0.565221,0.724983,0.689048
0.905153,0.565153,0.72491,0.688979
0.905062,0.565086,0.724838,0.68891
0.904972,0.565018,0.724765,0.688841
0.904881,0.564951,0.724693,0.688772
0.904791,0.564884,0.72462,0.688703
0.9047,0.564816,0.724548,0.688634
0.90461,0.564749,0.724475,0.688566
0.904519,0.564681,0.724403,0.688497
0.904429,0.564614,0.72433,0.688428
0.904339,0.564547,0.724258,0.688359
0.904248,0.564479,0.724185,0.68829
0.904158,0.564412,0.724113,0.688221
0.904067,0.564344,0.724041,0.688153
0.903977,0.564277,0.723968,0.688084
0.903887,0.56421,0.723896,0.688015
0.903796,0.564142,0.723823,0.687946
0.903706,0.564075,0.723751,0.687877
0.903615,0.564008,0.723679,0.687809
0.903525,0.56394,0.723606,0.68774
0.903435,0.563873,0.723534,0.687671
0.903344,0.563806,0.723462,0.687602
0.903254,0.563738,0.723389,0.687534
0.903164,0.563671,0.723317,0.687465
0.903073,0.563604,0.723245,0.687396
0.902983,0.563537,0.723172,0.687327
0.902893,0.563469,0.7231,0.687259
0.902802,0.563402,0.723028,0.68719
0.902712,0.563335,0.722955,0.687121
0.902622,0.563267,0.722883,0.687052
0.902532,0.5632,0.722811,0.686984
0.902441,0.563133,0.722738,0.686915
0.902351,0.563066,0.722666,0.686846
0.902261,0.562999,0.722594,0.686778
0.902171,0.562931,0.722522,0.686709
0.90208,0.562864,0.722449,0.68664
0.90199,0.562797,0.722377,0.686572
0.9019,0.56273,0.722305,0.686503
0.90181,0.562663,0.722233,0.686434
0.90172,0.562595,0.72216,0.686366
0.90163,0.562528,0.722088,0.686297
0.901539,0.562461,0.722016,0.686228
0.901449,0.562394,0.721944,0.68616
0.901359,0.562327,0.721872,0.686091
0.901269,0.56226,0.721799,0.686023
0.901179,0.562193,0.721727,0.685954
0.901089,0.562126,0.721655,0.685885
0.900999,0.562058,0.721583,0.685817
0.900908,0.561991,0.721511,0.685748
0.900818,0.561924,0.721439,0.68568
0.900728,0.561857,0.721366,0.685611
0.900638,0.56179,0.721294,0.685542
0.900548,0.561723,0.721222,0.685474
0.900458,0.561656,0.72115,0.685405
0.900368,0.561589,0.721078,0.685337
0.900278,0.561522,0.721006,0.685268
0.900188,0.561455,0.720934,0.6852
0.900098,0.561388,0.720862,0.685131
0.900008,0.561321,0.72079,0.685063
0.899918,0.561254,0.720718,0.684994
0.899828,0.561187,0.720645,0.684926
0.899738,0.56112,0.720573,0.684857
0.899648,0.561053,0.720501,0.684789
0.899558,0.560986,0.720429,0.68472
0.899468,0.560919,0.720357,0.684652
0.899378,0.560852,0.720285,0.684583
0.899288,0.560785,0.720213,0.684515
0.899198,0.560718,0.720141,0.684446
0.899108,0.560651,0.720069,0.684378
0.899018,0.560584,0.719997,0.68431
0.898929,0.560517,0.719925,0.684241
0.898839,0.56045,0.719853,0.684173
0.898749,0.560384,0.719781,0.684104
0.898659,0.560317,0.719709,0.684036
0.898569,0.56025,0.719637,0.683967
0.898479,0.560183,0.719565,0.683899
0.898389,0.560116,0.719493,0.683831
0.898299,0.560049,0.719421,0.683762
0.89821,0.559982,0.719349,0.683694
0.89812,0.559915,0.719277,0.683626
0.89803,0.559849,0.719206,0.683557
0.89794,0.559782,0.719134,0.683489
0.89785,0.559715,0.719062,0.68342
0.897761,0.559648,0.71899,0.683352
0.897671,0.559581,0.718918,0.683284
0.897581,0.559515,0.718846,0.683215
0.897491,0.559448,0.718774,0.683147
0.897402,0.559381,0.718702,0.683079
0.897312,0.559314,0.71863,0.683011
0.897222,0.559247,0.718559,0.682942
0.897132,0.559181,0.718487,0.682874
0.897043,0.559114,0.718415,0.682806
0.896953,0.559047,0.718343,0.682737
0.896863,0.55898,0.718271,0.682669
0.896774,0.558914,0.718199,0.682601
0.896684,0.558847,0.718127,0.682533
0.896594,0.55878,0.718056,0.682464
0.896505,0.558714,0.717984,0.682396
0.896415,0.558647,0.717912,0.682328
0.896325,0.55858,0.71784,0.68226
0.896236,0.558514,0.717768,0.682191
0.896146,0.558447,0.717697,0.682123
0.896056,0.55838,0.717625,0.682055
0.895967,0.558314,0.717553,0.681987
0.895877,0.558247,0.717481,0.681919
0.895788,0.55818,0.71741,0.68185
0.895698,0.558114,0.717338,0.681782
0.895608,0.558047,0.717266,0.681714
0.895519,0.55798,0.717194,0.681646
0.895429,0.557914,0.717123,0.681578
0.89534,0.557847,0.717051,0.681509
0.89525,0.557781,0.716979,0.681441
0.895161,0.557714,0.716908,0.681373
0.895071,0.557647,0.716836,0.681305
0.894982,0.557581,0.716764,0.681237
0.894892,0.557514,0.716693,0.681169
0.894803,0.557448,0.716621,0.681101
0.894713,0.557381,0.716549,0.681033
0.894624,0.557315,0.716478,0.680964
0.894534,0.557248,0.716406,0.680896
0.894445,0.557182,0.716334,0.680828
0.894355,0.557115,0.716263,0.68076
0.894266,0.557049,0.716191,0.680692
0.894177,0.556982,0.716119,0.680624
0.894087,0.556916,0.716048,0.680556
0.893998,0.556849,0.715976,0.680488
0.893908,0.556783,0.715905,0.68042
0.893819,0.556716,0.715833,0.680352
0.89373,0.55665,0.715761,0.680284
0.89364,0.556583,0.71569,0.680216
0.893551,0.556517,0.715618,0.680148
0.893461,0.55645,0.715547,0.68008
0.893372,0.556384,0.715475,0.680012
0.893283,0.556318,0.715404,0.679944
0.893193,0.556251,0.715332,0.679876
0.893104,0.556185,0.715261,0.679808
0.893015,0.556118,0.715189,0.67974
0.892926,0.556052,0.715118,0.679672
0.892836,0.555986,0.715046,0.679604
0.892747,0.555919,0.714975,0.679536
0.892658,0.555853,0.714903,0.679468
0.892568,0.555787,0.714832,0.6794
0.892479,0.55572,0.71476,0.679332
0.89239,0.555654,0.714689,0.679264
0.892301,0.555588,0.714617,0.679196
0.892211,0.555521,0.714546,0.679128
0.892122,0.555455,0.714474,0.67906
0.892033,0.555389,0.714403,0.678992
0.891944,0.555322,0.714331,0.678925
0.891855,0.555256,0.71426,0.678857
0.891765,0.55519,0.714188,0.678789
0.891676,0.555123,0.714117,0.678721
0.891587,0.555057,0.714046,0.678653
0.891498,0.554991,0.713974,0.678585
0.891409,0.554925,0.713903,0.678517
0.89132,0.554858,0.713831,0.678449
0.891231,0.554792,0.71376,0.678382
0.891141,0.554726,0.713689,0.678314
0.891052,0.55466,0.713617,0.678246
0.890963,0.554594,0.713546,0.678178
0.890874,0.554527,0.713475,0.67811
0.890785,0.554461,0.713403,0.678042
0.890696,0.554395,0.713332,0.677975
0.890607,0.554329,0.713261,0.677907
0.890518,0.554263,0.713189,0.677839
0.890429,0.554196,0.713118,0.677771
0.89034,0.55413,0.713047,0.677703
0.890251,0.554064,0.712975,0.677636
0.890162,0.553998,0.712904,0.677568
0.890073,0.553932,0.712833,0.6775
0.889984,0.553866,0.712761,0.677432
0.889895,0.5538,0.71269,0.677365
0.889806,0.553734,0.712619,0.677297
0.889717,0.553667,0.712548,0.677229
0.889628,0.553601,0.712476,0.677162
0.889539,0.553535,0.712405,0.677094
0.88945,0.553469,0.712334,0.677026
0.889361,0.553403,0.712263,0.676958
0.889272,0.553337,0.712191,0.676891
0.889183,0.553271,0.71212,0.676823
0.889094,0.553205,0.712049,0.676755
0.889005,0.553139,0.711978,0.676688
0.888916,0.553073,0.711907,0.67662
0.888827,0.553007,0.711835,0.676552
0.888738,0.552941,0.711764,0.676485
0.88865,0.552875,0.711693,0.676417
0.888561,0.552809,0.711622,0.676349
0.888472,0.552743,0.711551,0.676282
0.888383,0.552677,0.71148,0.676214
0.888294,0.552611,0.711408,0.676146
0.888205,0.552545,0.711337,0.676079
0.888117,0.552479,0.711266,0.676011
0.888028,0.552413,0.711195,0.675944
0.887939,0.552347,0.711124,0.675876
0.88785,0.552281,0.711053,0.675808
0.887761,0.552215,0.710982,0.675741
0.887673,0.552149,0.710911,0.675673
0.887584,0.552083,0.710839,0.675606
0.887495,0.552018,0.710768,0.675538
0.887406,0.551952,0.710697,0.675471
0.887318,0.551886,0.710626,0.675403
0.887229,0.55182,0.710555,0.675336
0.88714,0.551754,0.710484,0.675268
0.887051,0.551688,0.710413,0.6752
0.886963,0.551622,0.731652,0.675133
0.886431,0.551556,0.731579,0.675065
0.885899,0.551491,0.731506,0.674998
0.885367,0.551425,0.731433,0.67493
0.884836,0.551359,0.73136,0.674863
0.884305,0.551293,0.731287,0.674795
0.883775,0.551227,0.731213,0.674728
0.883244,0.551162,0.73114,0.674661
0.882715,0.551096,0.731067,0.674593
0.882185,0.55103,0.730994,0.674526
0.881656,0.550964,0.730921,0.674458
0.881127,0.550898,0.730848,0.674391
0.880598,0.550833,0.730775,0.674323
0.88007,0.550767,0.730702,0.674256
0.879542,0.550701,0.730629,0.674188
0.879014,0.550635,0.730556,0.674121
0.878487,0.55057,0.730483,0.674054
0.87796,0.550504,0.730409,0.673986
0.877433,0.550438,0.730336,0.673919
0.876907,0.550373,0.730263,0.673851
0.87638,0.550307,0.73019,0.673784
0.875855,0.550241,0.730117,0.673717
0.875329,0.550175,0.730044,0.673649
0.874804,0.55011,0.729971,0.673582
0.874279,0.550044,0.729898,0.673515
0.873755,0.549978,0.729825,0.673447
0.87323,0.549913,0.729752,0.67338
0.872707,0.549847,0.729679,0.673312
0.872183,0.549782,0.729606,0.673245
0.87166,0.549716,0.729533,0.673178
0.871137,0.54965,0.72946,0.67311
0.870614,0.549585,0.729388,0.673043
0.870092,0.549519,0.729315,0.672976
0.86957,0.549453,0.729242,0.672909
0.869048,0.549388,0.729169,0.672841
0.868527,0.549322,0.729096,0.672774
0.868006,0.549257,0.729023,0.672707
0.867485,0.549191,0.72895,0.672639
0.867398,0.549126,0.728877,0.672572
0.867311,0.54906,0.728804,0.672505
0.867225,0.548995,0.728731,0.672438
0.867138,0.548929,0.728658,0.67237
0.867051,0.548863,0.728586,0.672303
0.866965,0.548798,0.728513,0.672236
0.866878,0.548732,0.72844,0.672169
0.866791,0.548667,0.728367,0.672102
0.866704,0.548601,0.728294,0.672034
0.866618,0.548536,0.728221,0.671967
0.866531,0.54847,0.728149,0.6719
0.866444,0.548405,0.728076,0.671833
0.866358,0.54834,0.728003,0.671766
0.866271,0.548274,0.72793,0.671698
0.866185,0.548209,0.727857,0.671631
0.866098,0.548143,0.727785,0.671564
0.866011,0.548078,0.727712,0.671497
0.865925,0.548012,0.727639,0.67143
0.865838,0.547947,0.727566,0.671363
0.865752,0.547882,0.727494,0.671295
0.865665,0.547816,0.727421,0.671228
0.865578,0.547751,0.727348,0.671161
0.865492,0.547685,0.727275,0.671094
0.865405,0.54762,0.727203,0.671027
0.865319,0.547555,0.72713,0.67096
0.865232,0.547489,0.727057,0.670893
0.865146,0.547424,0.726984,0.670826
0.865059,0.547359,0.726912,0.670759
0.864973,0.547293,0.726839,0.670692
0.864886,0.547228,0.726766,0.670624
0.8648,0.547163,0.726694,0.670557
0.864713,0.547097,0.726621,0.67049
0.864627,0.547032,0.726548,0.670423
0.86454,0.546967,0.726476,0.670356
0.864454,0.546901,0.726403,0.670289
0.864367,0.546836,0.72633,0.670222
0.864281,0.546771,0.726258,0.670155
0.864195,0.546706,0.726185,0.670088
0.864108,0.54664,0.726113,0.670021
0.864022,0.546575,0.72604,0.669954
0.863935,0.54651,0.725967,0.669887
0.863849,0.546445,0.725895,0.66982
0.863763,0.546379,0.725822,0.669753
0.863676,0.546314,0.72575,0.669686
0.86359,0.546249,0.725677,0.669619
0.863503,0.546184,0.725604,0.669552
0.863417,0.546118,0.725532,0.669485
0.863331,0.546053,0.725459,0.669418
0.863244,0.545988,0.725387,0.669351
0.863158,0.545923,0.725314,0.669284
0.863072,0.545858,0.725242,0.669218
0.862985,0.545793,0.725169,0.669151
0.862899,0.545727,0.725097,0.669084
0.862813,0.545662,0.725024,0.669017
0.862727,0.545597,0.724952,0.66895
0.86264,0.545532,0.724879,0.668883
0.862554,0.545467,0.724807,0.668816
0.862468,0.545402,0.724734,0.668749
0.862382,0.545337,0.724662,0.668682
0.862295,0.545272,0.724589,0.668616
0.862209,0.545206,0.724517,0.668549
0.862123,0.545141,0.724444,0.668482
0.862037,0.545076,0.724372,0.668415
