energy,productivity,fun,hunger
0.630615,0.648692,0.545251,0.582586
0.630551,0.648646,0.561553,0.582528
0.630173,0.6486,0.578341,0.582469
0.629795,0.648555,0.595632,0.582411
0.629417,0.648509,0.61344,0.582353
0.62904,0.648463,0.63178,0.582295
0.628662,0.648417,0.650668,0.582236
0.628285,0.648371,0.670121,0.582178
0.627908,0.648326,0.690156,0.58212
0.627531,0.64828,0.710789,0.582062
0.627155,0.648234,0.73204,0.582004
0.626779,0.648188,0.731966,0.581945
0.626403,0.648142,0.731893,0.581887
0.626027,0.648097,0.73182,0.581829
0.625651,0.648051,0.731747,0.581771
0.625276,0.648005,0.731674,0.581713
0.624901,0.647959,0.7316,0.581654
0.624526,0.647913,0.731527,0.581596
0.624151,0.647868,0.731454,0.581538
0.623777,0.647822,0.731381,0.58148
0.623402,0.647776,0.731308,0.581422
0.623028,0.64773,0.731235,0.581364
0.622655,0.647685,0.731162,0.581306
0.622281,0.647639,0.731088,0.581247
0.621908,0.647593,0.731015,0.581189
0.621535,0.647547,0.730942,0.581131
0.621162,0.647502,0.730869,0.581073
0.620789,0.647456,0.730796,0.581015
0.620417,0.64741,0.730723,0.580957
0.620044,0.647364,0.73065,0.580899
0.619672,0.647319,0.730577,0.580841
0.619301,0.647273,0.730504,0.580783
0.618929,0.647227,0.730431,0.580724
0.618558,0.647182,0.730358,0.580666
0.618496,0.647136,0.730285,0.580608
0.618434,0.64709,0.730212,0.58055
0.618372,0.647044,0.730139,0.580492
0.61831,0.646999,0.730066,0.580434
0.618249,0.646953,0.729993,0.580376
0.618187,0.646907,0.72992,0.580318
0.618125,0.646862,0.729847,0.58026
0.618063,0.646816,0.729774,0.580202
0.618001,0.64677,0.729701,0.580144
0.61794,0.646724,0.729628,0.580086
0.617878,0.646679,0.729555,0.580028
0.617816,0.646633,0.729482,0.57997
0.617754,0.646587,0.729409,0.579912
0.617692,0.646542,0.729336,0.579854
0.617631,0.646496,0.729263,0.579796
0.617569,0.64645,0.72919,0.579738
0.617507,0.646405,0.729117,0.57968
0.617445,0.646359,0.729044,0.579622
0.617384,0.646313,0.728971,0.579564
0.617322,0.646268,0.728898,0.579506
0.61726,0.646222,0.728825,0.579448
0.617198,0.646176,0.728753,0.57939
0.617137,0.646131,0.72868,0.579332
0.617075,0.646085,0.728607,0.579274
0.617013,0.64604,0.728534,0.579216
0.616952,0.645994,0.728461,0.579159
0.61689,0.645948,0.728388,0.579101
0.616828,0.645903,0.728315,0.579043
0.616766,0.645857,0.728243,0.578985
0.616705,0.645811,0.72817,0.578927
0.616643,0.645766,0.728097,0.578869
0.616581,0.64572,0.728024,0.578811
0.61652,0.645674,0.727951,0.578753
0.616458,0.645629,0.727879,0.578695
0.616397,0.645583,0.727806,0.578638
0.616335,0.645538,0.727733,0.57858
0.616273,0.645492,0.72766,0.578522
0.616212,0.645446,0.727587,0.578464
0.61615,0.645401,0.727515,0.578406
0.616088,0.645355,0.727442,0.578348
0.616027,0.64531,0.727369,0.57829
0.615965,0.645264,0.727296,0.578233
0.615904,0.645218,0.727224,0.578175
0.615842,0.645173,0.727151,0.578117
0.61578,0.645127,0.727078,0.578059
0.615719,0.645082,0.727006,0.578001
0.615657,0.645036,0.726933,0.577944
0.615596,0.644991,0.72686,0.577886
0.615534,0.644945,0.726788,0.577828
0.615473,0.6449,0.726715,0.57777
0.615411,0.644854,0.726642,0.577712
0.615349,0.644808,0.72657,0.577655
0.615288,0.644763,0.726497,0.577597
0.615226,0.644717,0.726424,0.577539
0.615165,0.644672,0.726352,0.577481
0.615103,0.644626,0.726279,0.577424
0.615042,0.644581,0.726206,0.577366
0.61498,0.644535,0.726134,0.577308
0.614919,0.64449,0.726061,0.57725
0.614857,0.644444,0.725988,0.577193
0.614796,0.644399,0.725916,0.577135
0.614734,0.644353,0.725843,0.577077
0.614673,0.644307,0.725771,0.57702
0.614611,0.644262,0.725698,0.576962
0.61455,0.644216,0.725626,0.576904
0.614489,0.644171,0.725553,0.576846
0.614427,0.644125,0.72548,0.576789
0.614366,0.64408,0.725408,0.576731
0.614304,0.644034,0.725335,0.576673
0.614243,0.643989,0.725263,0.576616
0.614181,0.643943,0.72519,0.576558
0.61412,0.643898,0.725118,0.5765
0.614059,0.643852,0.725045,0.576443
0.613997,0.643807,0.724973,0.576385
0.613936,0.643762,0.7249,0.576327
0.613874,0.643716,0.724828,0.57627
0.613813,0.643671,0.724755,0.576212
0.613752,0.643625,0.724683,0.576155
0.61369,0.64358,0.72461,0.576097
0.613629,0.643534,0.724538,0.576039
0.613567,0.643489,0.724465,0.575982
0.613506,0.643443,0.724393,0.575924
0.613445,0.643398,0.724321,0.575867
0.613383,0.643352,0.724248,0.575809
0.613322,0.643307,0.724176,0.575751
0.613261,0.643261,0.724103,0.575694
0.613199,0.643216,0.724031,0.575636
0.613138,0.643171,0.723958,0.575579
0.613077,0.643125,0.723886,0.575521
0.613015,0.64308,0.723814,0.575464
0.612954,0.643034,0.723741,0.575406
0.612893,0.642989,0.723669,0.575348
0.612832,0.642943,0.723597,0.575291
0.61277,0.642898,0.723524,0.575233
0.612709,0.642853,0.723452,0.575176
0.612648,0.642807,0.723379,0.575118
0.612586,0.642762,0.723307,0.575061
0.612525,0.642716,0.723235,0.575003
0.612464,0.642671,0.723162,0.574946
0.612403,0.642626,0.72309,0.574888
0.612341,0.64258,0.723018,0.574831
0.61228,0.642535,0.722946,0.574773
0.612219,0.642489,0.722873,0.574716
0.612158,0.642444,0.722801,0.574658
0.612097,0.642399,0.722729,0.574601
0.612035,0.642353,0.722656,0.574544
0.611974,0.642308,0.722584,0.574486
0.611913,0.642262,0.722512,0.574429
0.611852,0.642217,0.72244,0.574371
0.611791,0.642172,0.722367,0.574314
0.611729,0.642126,0.722295,0.574256
0.611668,0.642081,0.722223,0.574199
0.611607,0.642036,0.722151,0.574141
0.611546,0.64199,0.722079,0.574084
0.611485,0.641945,0.722006,0.574027
0.611424,0.6419,0.721934,0.573969
0.611362,0.641854,0.721862,0.573912
0.611301,0.641809,0.72179,0.573854
0.61124,0.641764,0.721718,0.573797
0.611179,0.641718,0.721645,0.57374
0.611118,0.641673,0.721573,0.573682
0.611057,0.641628,0.721501,0.573625
0.610996,0.641582,0.721429,0.573568
0.610935,0.641537,0.721357,0.57351
0.610874,0.641492,0.721285,0.573453
0.610812,0.641446,0.721212,0.573396
0.610751,0.641401,0.72114,0.573338
0.61069,0.641356,0.721068,0.573281
0.610629,0.64131,0.720996,0.573224
0.610568,0.641265,0.720924,0.573166
0.610507,0.64122,0.720852,0.573109
0.610446,0.641174,0.72078,0.573052
0.610385,0.641129,0.720708,0.572994
0.610324,0.641084,0.720636,0.572937
0.610263,0.641039,0.720564,0.57288
0.610202,0.640993,0.720492,0.572822
0.610141,0.640948,0.72042,0.572765
0.61008,0.640903,0.720348,0.572708
0.610019,0.640857,0.720275,0.572651
0.609958,0.640812,0.720203,0.572593
0.609897,0.640767,0.720131,0.572536
0.609836,0.640722,0.720059,0.572479
0.609775,0.640676,0.719987,0.572422
0.609714,0.640631,0.719915,0.572364
0.609653,0.640586,0.719843,0.572307
0.609592,0.640541,0.719771,0.57225
0.609531,0.640495,0.719699,0.572193
0.60947,0.64045,0.719627,0.572135
0.609409,0.640405,0.719556,0.572078
0.609348,0.64036,0.719484,0.572021
0.609287,0.640314,0.719412,0.571964
0.609226,0.640269,0.71934,0.571907
0.609165,0.640224,0.719268,0.571849
0.609105,0.640179,0.719196,0.571792
0.609044,0.640133,0.719124,0.571735
0.608983,0.640088,0.719052,0.571678
0.608922,0.640043,0.71898,0.571621
0.608861,0.639998,0.718908,0.571564
0.6088,0.639953,0.718836,0.571506
0.608739,0.639907,0.718764,0.571449
0.608678,0.639862,0.718693,0.571392
0.608617,0.639817,0.718621,0.571335
0.608557,0.639772,0.718549,0.571278
0.608496,0.639727,0.718477,0.571221
0.608435,0.639681,0.718405,0.571164
0.608374,0.639636,0.718333,0.571106
0.608313,0.639591,0.718261,0.571049
0.608252,0.639546,0.71819,0.570992
0.608191,0.639501,0.718118,0.570935
0.608131,0.639455,0.718046,0.570878
0.60807,0.63941,0.717974,0.570821
0.608009,0.639365,0.717902,0.570764
0.607948,0.63932,0.717831,0.570707
0.607887,0.639275,0.717759,0.57065
0.607827,0.63923,0.717687,0.570593
0.607766,0.639184,0.717615,0.570536
0.607705,0.639139,0.717543,0.570479
0.607644,0.639094,0.717472,0.570421
0.607584,0.639049,0.7174,0.570364
0.607523,0.639004,0.717328,0.570307
0.607462,0.638959,0.717257,0.57025
0.607401,0.638914,0.717185,0.570193
0.607341,0.638868,0.717113,0.570136
0.60728,0.638823,0.717041,0.570079
0.607219,0.638778,0.71697,0.570022
0.607158,0.638733,0.716898,0.569965
0.607098,0.638688,0.716826,0.569908
0.607037,0.638643,0.716755,0.569851
0.606976,0.638598,0.716683,0.569794
0.606916,0.638553,0.716611,0.569737
0.606855,0.638507,0.71654,0.56968
0.606794,0.638462,0.716468,0.569623
0.606734,0.638417,0.716396,0.569566
0.606673,0.638372,0.716325,0.569509
0.606612,0.638327,0.716253,0.569453
0.606552,0.638282,0.716181,0.569396
0.606491,0.638237,0.71611,0.569339
0.60643,0.638192,0.716038,0.569282
0.60637,0.638147,0.715967,0.569225
0.606309,0.638102,0.715895,0.569168
0.606248,0.638057,0.715823,0.569111
0.606188,0.638011,0.715752,0.569054
0.606127,0.637966,0.71568,0.568997
0.606066,0.637921,0.715609,0.56894
0.606006,0.637876,0.715537,0.568883
0.605945,0.637831,0.715466,0.568826
0.605885,0.637786,0.715394,0.56877
0.605824,0.637741,0.715322,0.568713
0.605763,0.637696,0.715251,0.568656
0.605703,0.637651,0.715179,0.568599
0.605642,0.637606,0.715108,0.568542
0.605582,0.637561,0.715036,0.568485
0.605521,0.637516,0.714965,0.568428
0.605461,0.637471,0.714893,0.568372
0.6054,0.637426,0.714822,0.568315
0.60534,0.637381,0.71475,0.568258
0.605279,0.637336,0.714679,0.568201
0.605218,0.637291,0.714607,0.568144
0.605158,0.637246,0.714536,0.568087
0.605097,0.637201,0.714465,0.568031
0.605037,0.637156,0.714393,0.567974
0.604976,0.637111,0.714322,0.567917
0.604916,0.637066,0.71425,0.56786
0.604855,0.637021,0.714179,0.567803
0.604795,0.636976,0.714107,0.567747
0.604734,0.636931,0.714036,0.56769
0.604674,0.636886,0.713965,0.567633
0.604614,0.636841,0.713893,0.567576
0.604553,0.636796,0.713822,0.56752
0.604493,0.636751,0.71375,0.567463
0.604432,0.636706,0.713679,0.567406
0.604372,0.636661,0.713608,0.567349
0.604311,0.636616,0.713536,0.567293
0.604251,0.636571,0.713465,0.567236
0.60419,0.636526,0.713394,0.567179
0.60413,0.636481,0.713322,0.567122
0.60407,0.636436,0.713251,0.567066
0.604009,0.636391,0.71318,0.567009
0.603949,0.636346,0.713108,0.566952
0.603888,0.636301,0.713037,0.566896
0.603828,0.636256,0.712966,0.566839
0.603768,0.636211,0.712894,0.566782
0.603707,0.636166,0.712823,0.566726
0.603647,0.636121,0.712752,0.566669
0.603587,0.636076,0.71268,0.566612
0.603526,0.636031,0.712609,0.566556
0.603466,0.635986,0.712538,0.566499
0.603405,0.635941,0.712467,0.566442
0.603345,0.635897,0.712395,0.566386
0.603285,0.635852,0.712324,0.566329
0.603224,0.635807,0.712253,0.566272
0.603164,0.635762,0.712182,0.566216
0.603104,0.635717,0.712111,0.566159
0.603044,0.635672,0.712039,0.566102
0.602983,0.635627,0.711968,0.566046
0.602923,0.635582,0.711897,0.565989
0.602863,0.635537,0.711826,0.565933
0.602802,0.635492,0.711755,0.565876
0.602742,0.635447,0.711683,0.565819
0.602682,0.635403,0.711612,0.565763
0.602622,0.635358,0.711541,0.565706
0.602561,0.635313,0.71147,0.56565
0.602501,0.635268,0.711399,0.565593
0.602441,0.635223,0.711328,0.565537
0.60238,0.635178,0.711256,0.56548
0.60232,0.635133,0.711185,0.565424
0.60226,0.635088,0.711114,0.565367
0.6022,0.635044,0.711043,0.56531
0.60214,0.634999,0.710972,0.565254
0.602079,0.634954,0.710901,0.565197
0.602019,0.634909,0.71083,0.565141
0.601959,0.634864,0.710759,0.565084
0.601899,0.634819,0.710688,0.565028
0.601839,0.634774,0.710617,0.564971
0.601778,0.63473,0.710546,0.564915
0.601718,0.634685,0.710474,0.564858
0.601658,0.63464,0.710403,0.564802
0.601598,0.634595,0.731642,0.564745
0.601237,0.63455,0.731569,0.564689
0.600876,0.634505,0.731496,0.564632
0.600516,0.634461,0.731423,0.564576
0.600155,0.634416,0.73135,0.56452
0.599795,0.634371,0.731277,0.564463
0.599436,0.634326,0.731204,0.564407
0.599076,0.634281,0.73113,0.56435
0.598716,0.634237,0.731057,0.564294
0.598357,0.634192,0.730984,0.564237
0.597998,0.634147,0.730911,0.564181
0.59764,0.634102,0.730838,0.564124
0.597281,0.634057,0.730765,0.564068
0.596923,0.634013,0.730692,0.564012
0.596565,0.633968,0.730619,0.563955
0.596207,0.633923,0.730546,0.563899
0.595849,0.633878,0.730473,0.563842
0.595491,0.633833,0.7304,0.563786
0.595134,0.633789,0.730327,0.56373
0.594777,0.633744,0.730254,0.563673
0.59442,0.633699,0.73018,0.563617
0.594064,0.633654,0.730107,0.563561
0.593707,0.63361,0.730034,0.563504
0.593351,0.633565,0.729961,0.563448
0.592995,0.63352,0.729888,0.563392
0.592639,0.633475,0.729815,0.563335
0.592284,0.633431,0.729742,0.563279
0.591928,0.633386,0.72967,0.563223
0.591573,0.633341,0.729597,0.563166
0.591218,0.633296,0.729524,0.56311
0.590864,0.633252,0.729451,0.563054
0.590509,0.633207,0.729378,0.562997
0.590155,0.633162,0.729305,0.562941
0.589801,0.633117,0.729232,0.562885
0.589447,0.633073,0.729159,0.562828
0.589093,0.633028,0.729086,0.562772
0.58874,0.632983,0.729013,0.562716
0.588681,0.632938,0.72894,0.56266
0.588622,0.632894,0.728867,0.562603
0.588563,0.632849,0.728794,0.562547
0.588504,0.632804,0.728722,0.562491
0.588446,0.63276,0.728649,0.562435
0.588387,0.632715,0.728576,0.562378
0.588328,0.63267,0.728503,0.562322
0.588269,0.632626,0.72843,0.562266
0.58821,0.632581,0.728357,0.56221
0.588151,0.632536,0.728284,0.562153
0.588093,0.632492,0.728212,0.562097
0.588034,0.632447,0.728139,0.562041
0.587975,0.632402,0.728066,0.561985
0.587916,0.632357,0.727993,0.561929
0.587857,0.632313,0.72792,0.561872
0.587799,0.632268,0.727848,0.561816
0.58774,0.632223,0.727775,0.56176
0.587681,0.632179,0.727702,0.561704
0.587622,0.632134,0.727629,0.561648
0.587564,0.632089,0.727556,0.561592
0.587505,0.632045,0.727484,0.561535
0.587446,0.632,0.727411,0.561479
0.587387,0.631956,0.727338,0.561423
0.587329,0.631911,0.727265,0.561367
0.58727,0.631866,0.727193,0.561311
0.587211,0.631822,0.72712,0.561255
0.587152,0.631777,0.727047,0.561199
0.587094,0.631732,0.726975,0.561142
0.587035,0.631688,0.726902,0.561086
0.586976,0.631643,0.726829,0.56103
0.586918,0.631598,0.726757,0.560974
0.586859,0.631554,0.726684,0.560918
0.5868,0.631509,0.726611,0.560862
0.586742,0.631465,0.726539,0.560806
0.586683,0.63142,0.726466,0.56075
0.586624,0.631375,0.726393,0.560694
0.586566,0.631331,0.726321,0.560638
0.586507,0.631286,0.726248,0.560582
0.586448,0.631242,0.726175,0.560525
0.58639,0.631197,0.726103,0.560469
0.586331,0.631152,0.72603,0.560413
0.586272,0.631108,0.725957,0.560357
0.586214,0.631063,0.725885,0.560301
0.586155,0.631019,0.725812,0.560245
0.586096,0.630974,0.72574,0.560189
0.586038,0.63093,0.725667,0.560133
0.585979,0.630885,0.725595,0.560077
0.585921,0.63084,0.725522,0.560021
0.585862,0.630796,0.725449,0.559965
0.585803,0.630751,0.725377,0.559909
0.585745,0.630707,0.725304,0.559853
0.585686,0.630662,0.725232,0.559797
0.585628,0.630618,0.725159,0.559741
0.585569,0.630573,0.725087,0.559685
0.585511,0.630528,0.725014,0.559629
0.585452,0.630484,0.724942,0.559573
0.585393,0.630439,0.724869,0.559517
0.585335,0.630395,0.724797,0.559461
0.585276,0.63035,0.724724,0.559405
0.585218,0.630306,0.724652,0.55935
0.585159,0.630261,0.724579,0.559294
0.585101,0.630217,0.724507,0.559238
0.585042,0.630172,0.724434,0.559182
0.584984,0.630128,0.724362,0.559126
0.584925,0.630083,0.72429,0.55907
0.584867,0.630039,0.724217,0.559014
0.584808,0.629994,0.724145,0.558958
0.58475,0.62995,0.724072,0.558902
0.584691,0.629905,0.724,0.558846
0.584633,0.629861,0.723928,0.55879
0.584574,0.629816,0.723855,0.558735
0.584516,0.629772,0.723783,0.558679
0.584458,0.629727,0.72371,0.558623
0.584399,0.629683,0.723638,0.558567
0.584341,0.629638,0.723566,0.558511
0.584282,0.629594,0.723493,0.558455
0.584224,0.629549,0.723421,0.558399
0.584165,0.629505,0.723349,0.558344
0.584107,0.62946,0.723276,0.558288
0.584049,0.629416,0.723204,0.558232
0.58399,0.629371,0.723132,0.558176
0.583932,0.629327,0.723059,0.55812
0.583873,0.629282,0.722987,0.558064
0.583815,0.629238,0.722915,0.558009
0.583757,0.629194,0.722842,0.557953
0.583698,0.629149,0.72277,0.557897
0.58364,0.629105,0.722698,0.557841
0.583581,0.62906,0.722626,0.557785
0.583523,0.629016,0.722553,0.55773
0.583465,0.628971,0.722481,0.557674
0.583406,0.628927,0.722409,0.557618
0.583348,0.628883,0.722337,0.557562
0.58329,0.628838,0.722264,0.557507
0.583231,0.628794,0.722192,0.557451
0.583173,0.628749,0.72212,0.557395
0.583115,0.628705,0.722048,0.557339
0.583056,0.62866,0.721975,0.557284
0.582998,0.628616,0.721903,0.557228
0.58294,0.628572,0.721831,0.557172
0.582882,0.628527,0.721759,0.557116
0.582823,0.628483,0.721687,0.557061
0.582765,0.628438,0.721615,0.557005
0.582707,0.628394,0.721542,0.556949
0.582648,0.62835,0.72147,0.556894
0.58259,0.628305,0.721398,0.556838
0.582532,0.628261,0.721326,0.556782
0.582474,0.628216,0.721254,0.556727
0.582415,0.628172,0.721182,0.556671
0.582357,0.628128,0.72111,0.556615
0.582299,0.628083,0.721037,0.55656
0.582241,0.628039,0.720965,0.556504
0.582183,0.627995,0.720893,0.556448
0.582124,0.62795,0.720821,0.556393
0.582066,0.627906,0.720749,0.556337
0.582008,0.627861,0.720677,0.556281
0.58195,0.627817,0.720605,0.556226
0.581891,0.627773,0.720533,0.55617
0.581833,0.627728,0.720461,0.556115
0.581775,0.627684,0.720389,0.556059
0.581717,0.62764,0.720317,0.556003
0.581659,0.627595,0.720245,0.555948
0.581601,0.627551,0.720173,0.555892
0.581542,0.627507,0.720101,0.555837
0.581484,0.627462,0.720029,0.555781
0.581426,0.627418,0.719957,0.555725
0.581368,0.627374,0.719885,0.55567
0.58131,0.627329,0.719813,0.555614
0.581252,0.627285,0.719741,0.555559
0.581194,0.627241,0.719669,0.555503
0.581135,0.627196,0.719597,0.555448
0.581077,0.627152,0.719525,0.555392
0.581019,0.627108,0.719453,0.555336
0.580961,0.627064,0.719381,0.555281
0.580903,0.627019,0.719309,0.555225
0.580845,0.626975,0.719237,0.55517
0.580787,0.626931,0.719165,0.555114
0.580729,0.626886,0.719093,0.555059
0.580671,0.626842,0.719021,0.555003
0.580613,0.626798,0.718949,0.554948
0.580555,0.626754,0.718877,0.554892
0.580497,0.626709,0.718806,0.554837
0.580438,0.626665,0.718734,0.554781
0.58038,0.626621,0.718662,0.554726
0.580322,0.626576,0.71859,0.55467
0.580264,0.626532,0.718518,0.554615
0.580206,0.626488,0.718446,0.554559
0.580148,0.626444,0.718374,0.554504
0.58009,0.626399,0.718303,0.554449
0.580032,0.626355,0.718231,0.554393
0.579974,0.626311,0.718159,0.554338
0.579916,0.626267,0.718087,0.554282
0.579858,0.626222,0.718015,0.554227
0.5798,0.626178,0.717944,0.554171
0.579742,0.626134,0.717872,0.554116
0.579684,0.62609,0.7178,0.554061
0.579626,0.626046,0.717728,0.554005
0.579568,0.626001,0.717656,0.55395
0.57951,0.625957,0.717585,0.553894
0.579453,0.625913,0.717513,0.553839
0.579395,0.625869,0.717441,0.553784
0.579337,0.625824,0.717369,0.553728
0.579279,0.62578,0.717298,0.553673
0.579221,0.625736,0.717226,0.553618
0.579163,0.625692,0.717154,0.553562
0.579105,0.625648,0.717082,0.553507
0.579047,0.625603,0.717011,0.553451
0.578989,0.625559,0.716939,0.553396
0.578931,0.625515,0.716867,0.553341
0.578873,0.625471,0.716796,0.553285
0.578815,0.625427,0.716724,0.55323
0.578758,0.625382,0.716652,0.553175
0.5787,0.625338,0.716581,0.553119
0.578642,0.625294,0.716509,0.553064
0.578584,0.62525,0.716437,0.553009
0.578526,0.625206,0.716366,0.552954
0.578468,0.625162,0.716294,0.552898
0.57841,0.625117,0.716222,0.552843
0.578353,0.625073,0.716151,0.552788
0.578295,0.625029,0.716079,0.552732
0.578237,0.624985,0.716008,0.552677
0.578179,0.624941,0.715936,0.552622
0.578121,0.624897,0.715864,0.552567
0.578063,0.624853,0.715793,0.552511
0.578006,0.624808,0.715721,0.552456
0.577948,0.624764,0.71565,0.552401
0.57789,0.62472,0.715578,0.552346
0.577832,0.624676,0.715507,0.55229
0.577774,0.624632,0.715435,0.552235
0.577717,0.624588,0.715363,0.55218
0.577659,0.624544,0.715292,0.552125
0.577601,0.624499,0.71522,0.552069
0.577543,0.624455,0.715149,0.552014
0.577486,0.624411,0.715077,0.551959
0.577428,0.624367,0.715006,0.551904
0.57737,0.624323,0.714934,0.551849
0.577312,0.624279,0.714863,0.551793
0.577255,0.624235,0.714791,0.551738
0.577197,0.624191,0.71472,0.551683
0.577139,0.624147,0.714648,0.551628
0.577082,0.624103,0.714577,0.551573
0.577024,0.624058,0.714505,0.551518
0.576966,0.624014,0.714434,0.551462
0.576908,0.62397,0.714363,0.551407
0.576851,0.623926,0.714291,0.551352
0.576793,0.623882,0.71422,0.551297
0.576735,0.623838,0.714148,0.551242
0.576678,0.623794,0.714077,0.551187
0.57662,0.62375,0.714005,0.551132
0.576562,0.623706,0.713934,0.551077
0.576505,0.623662,0.713863,0.551021
0.576447,0.623618,0.713791,0.550966
0.576389,0.623574,0.71372,0.550911
0.576332,0.62353,0.713649,0.550856
