energy,productivity,fun,hunger
0.764618,0.804564,0.65738,0.75198
0.764541,0.804524,0.657314,0.751905
0.764465,0.804484,0.657248,0.751829
0.764389,0.804444,0.657183,0.751754
0.764312,0.804403,0.657117,0.751679
0.764236,0.804363,0.657051,0.751604
0.764159,0.804323,0.656986,0.751529
0.764083,0.804283,0.65692,0.751454
0.764006,0.804243,0.656854,0.751378
0.76393,0.804202,0.656789,0.751303
0.763854,0.804162,0.656723,0.751228
0.763777,0.804122,0.656657,0.751153
0.763701,0.804082,0.656591,0.751078
0.763624,0.804042,0.656526,0.751003
0.763548,0.804002,0.65646,0.750928
0.763472,0.803962,0.656395,0.750853
0.763395,0.803921,0.656329,0.750778
0.763319,0.803881,0.656263,0.750702
0.763243,0.803841,0.656198,0.750627
0.763166,0.803801,0.656132,0.750552
0.76309,0.803761,0.656066,0.750477
0.763014,0.803721,0.656001,0.750402
0.762937,0.80368,0.655935,0.750327
0.762861,0.80364,0.65587,0.750252
0.762785,0.8036,0.655804,0.750177
0.762709,0.80356,0.655738,0.750102
0.762632,0.80352,0.655673,0.750027
0.762556,0.80348,0.655607,0.749952
0.76248,0.80344,0.655542,0.749877
0.762404,0.8034,0.655476,0.749802
0.762327,0.803359,0.655411,0.749727
0.762251,0.803319,0.655345,0.749652
0.762175,0.803279,0.65528,0.749577
0.762099,0.803239,0.655214,0.749502
0.762022,0.803199,0.655149,0.749427
0.761946,0.803159,0.655083,0.749352
0.76187,0.803119,0.655017,0.749277
0.761794,0.803079,0.654952,0.749203
0.761718,0.803038,0.654886,0.749128
0.761642,0.802998,0.654821,0.749053
0.761565,0.802958,0.654756,0.748978
0.761489,0.802918,0.65469,0.748903
0.761413,0.802878,0.654625,0.748828
0.761337,0.802838,0.654559,0.748753
0.761261,0.802798,0.654494,0.748678
0.761185,0.802758,0.654428,0.748603
0.761109,0.802718,0.654363,0.748528
0.761032,0.802678,0.654297,0.748454
0.760956,0.802637,0.654232,0.748379
0.76088,0.802597,0.654166,0.748304
0.760804,0.802557,0.654101,0.748229
0.760728,0.802517,0.654036,0.748154
0.760652,0.802477,0.65397,0.748079
0.760576,0.802437,0.653905,0.748005
0.7605,0.802397,0.653839,0.74793
0.760424,0.802357,0.653774,0.747855
0.760348,0.802317,0.653709,0.74778
0.760272,0.802277,0.653643,0.747706
0.760196,0.802237,0.653578,0.747631
0.76012,0.802197,0.653513,0.747556
0.760044,0.802157,0.653447,0.747481
0.759968,0.802116,0.653382,0.747406
0.759892,0.802076,0.653317,0.747332
0.759816,0.802036,0.653251,0.747257
0.75974,0.801996,0.653186,0.747182
0.759664,0.801956,0.653121,0.747108
0.759588,0.801916,0.653055,0.747033
0.759512,0.801876,0.65299,0.746958
0.759436,0.801836,0.652925,0.746883
0.75936,0.801796,0.652859,0.746809
0.759284,0.801756,0.652794,0.746734
0.759208,0.801716,0.652729,0.746659
0.759132,0.801676,0.652664,0.746585
0.759056,0.801636,0.652598,0.74651
0.75898,0.801596,0.652533,0.746435
0.758904,0.801556,0.652468,0.746361
0.758829,0.801516,0.652403,0.746286
0.758753,0.801476,0.652337,0.746212
0.758677,0.801436,0.652272,0.746137
0.758601,0.801396,0.652207,0.746062
0.758525,0.801356,0.652142,0.745988
0.758449,0.801316,0.652076,0.745913
0.758373,0.801276,0.652011,0.745839
0.758297,0.801236,0.651946,0.745764
0.758222,0.801196,0.651881,0.745689
0.758146,0.801156,0.651816,0.745615
0.75807,0.801116,0.65175,0.74554
0.757994,0.801076,0.651685,0.745466
0.757918,0.801035,0.65162,0.745391
0.757843,0.800995,0.651555,0.745317
0.757767,0.800955,0.65149,0.745242
0.757691,0.800915,0.651425,0.745168
0.757615,0.800875,0.651359,0.745093
0.75754,0.800835,0.651294,0.745018
0.757464,0.800795,0.651229,0.744944
0.757388,0.800755,0.651164,0.744869
0.757312,0.800715,0.651099,0.744795
0.757237,0.800675,0.651034,0.744721
0.757161,0.800636,0.650969,0.744646
0.757085,0.800596,0.650904,0.744572
0.757009,0.800556,0.650839,0.744497
0.756934,0.800516,0.650773,0.744423
0.756858,0.800476,0.650708,0.744348
0.756782,0.800436,0.650643,0.744274
0.756707,0.800396,0.650578,0.744199
0.756631,0.800356,0.650513,0.744125
0.756555,0.800316,0.650448,0.744051
0.75648,0.800276,0.650383,0.743976
0.756404,0.800236,0.650318,0.743902
0.756328,0.800196,0.650253,0.743827
0.756253,0.800156,0.650188,0.743753
0.756177,0.800116,0.650123,0.743679
0.756101,0.800076,0.650058,0.743604
0.756026,0.800036,0.649993,0.74353
0.75595,0.799996,0.649928,0.743456
0.755875,0.799956,0.649863,0.743381
0.755799,0.799916,0.649798,0.743307
0.755724,0.799876,0.649733,0.743232
0.755648,0.799836,0.649668,0.743158
0.755572,0.799796,0.649603,0.743084
0.755497,0.799756,0.649538,0.74301
0.755421,0.799716,0.649473,0.742935
0.755346,0.799676,0.649408,0.742861
0.75527,0.799636,0.649343,0.742787
0.755195,0.799596,0.649278,0.742712
0.755119,0.799557,0.649213,0.742638
0.755044,0.799517,0.649148,0.742564
0.754968,0.799477,0.649084,0.74249
0.754893,0.799437,0.649019,0.742415
0.754817,0.799397,0.648954,0.742341
0.754742,0.799357,0.648889,0.742267
0.754666,0.799317,0.648824,0.742193
0.754591,0.799277,0.648759,0.742118
0.754515,0.799237,0.648694,0.742044
0.75444,0.799197,0.648629,0.74197
0.754364,0.799157,0.648564,0.741896
0.754289,0.799117,0.6485,0.741822
0.754214,0.799077,0.648435,0.741747
0.754138,0.799038,0.64837,0.741673
0.754063,0.798998,0.648305,0.741599
0.753987,0.798958,0.64824,0.741525
0.753912,0.798918,0.648175,0.741451
0.753836,0.798878,0.648111,0.741377
0.753761,0.798838,0.648046,0.741303
0.753686,0.798798,0.647981,0.741228
0.75361,0.798758,0.647916,0.741154
0.753535,0.798718,0.647851,0.74108
0.75346,0.798678,0.647787,0.741006
0.753384,0.798639,0.647722,0.740932
0.753309,0.798599,0.647657,0.740858
0.753234,0.798559,0.647592,0.740784
0.753158,0.798519,0.647528,0.74071
0.753083,0.798479,0.647463,0.740636
0.753008,0.798439,0.647398,0.740562
0.752932,0.798399,0.647333,0.740487
0.752857,0.798359,0.647269,0.740413
0.752782,0.798319,0.647204,0.740339
0.752707,0.79828,0.647139,0.740265
0.752631,0.79824,0.647074,0.740191
0.752556,0.7982,0.64701,0.740117
0.752481,0.79816,0.646945,0.740043
0.752405,0.79812,0.64688,0.739969
0.75233,0.79808,0.646816,0.739895
0.752255,0.79804,0.646751,0.739821
0.75218,0.798001,0.646686,0.739747
0.752105,0.797961,0.646622,0.739673
0.752029,0.797921,0.646557,0.739599
0.751954,0.797881,0.646492,0.739525
0.751879,0.797841,0.646428,0.739451
0.751804,0.797801,0.646363,0.739378
0.751729,0.797761,0.646298,0.739304
0.751653,0.797722,0.646234,0.73923
0.751578,0.797682,0.646169,0.739156
0.751503,0.797642,0.646104,0.739082
0.751428,0.797602,0.64604,0.739008
0.751353,0.797562,0.645975,0.738934
0.751278,0.797522,0.645911,0.73886
0.751203,0.797483,0.645846,0.738786
0.751127,0.797443,0.645782,0.738712
0.751052,0.797403,0.645717,0.738638
0.750977,0.797363,0.645652,0.738565
0.750902,0.797323,0.645588,0.738491
0.750827,0.797283,0.645523,0.738417
0.750752,0.797244,0.645459,0.738343
0.750677,0.797204,0.645394,0.738269
0.750602,0.797164,0.64533,0.738195
0.750527,0.797124,0.645265,0.738122
0.750452,0.797084,0.645201,0.738048
0.750377,0.797045,0.645136,0.737974
0.750302,0.797005,0.645071,0.7379
0.750227,0.796965,0.645007,0.737826
0.750152,0.796925,0.644942,0.737753
0.750077,0.796885,0.644878,0.737679
0.750002,0.796846,0.644814,0.737605
0.749927,0.796806,0.644749,0.737531
0.749852,0.796766,0.644685,0.737458
0.749777,0.796726,0.64462,0.737384
0.749702,0.796686,0.644556,0.73731
0.749627,0.796647,0.644491,0.737236
0.749552,0.796607,0.644427,0.737163
0.749477,0.796567,0.644362,0.737089
0.749402,0.796527,0.644298,0.737015
0.749327,0.796487,0.644233,0.736941
0.749252,0.796448,0.644169,0.736868
0.749177,0.796408,0.644105,0.736794
0.749102,0.796368,0.64404,0.73672
0.749027,0.796328,0.643976,0.736647
0.748952,0.796289,0.643911,0.736573
0.748877,0.796249,0.643847,0.736499
0.748802,0.796209,0.643783,0.736426
0.748728,0.796169,0.643718,0.736352
0.748653,0.796129,0.643654,0.736279
0.748578,0.79609,0.643589,0.736205
0.748503,0.79605,0.643525,0.736131
0.748428,0.79601,0.643461,0.736058
0.748353,0.79597,0.643396,0.735984
0.748278,0.795931,0.643332,0.73591
0.748204,0.795891,0.643268,0.735837
0.748129,0.795851,0.643203,0.735763
0.748054,0.795811,0.643139,0.73569
0.747979,0.795772,0.643075,0.735616
0.747904,0.795732,0.64301,0.735543
0.74783,0.795692,0.642946,0.735469
0.747755,0.795652,0.642882,0.735395
0.74768,0.795613,0.642818,0.735322
0.747605,0.795573,0.642753,0.735248
0.74753,0.795533,0.642689,0.735175
0.747456,0.795493,0.642625,0.735101
0.747381,0.795454,0.64256,0.735028
0.747306,0.795414,0.642496,0.734954
0.747231,0.795374,0.642432,0.734881
0.747157,0.795335,0.642368,0.734807
0.747082,0.795295,0.642304,0.734734
0.747007,0.795255,0.642239,0.73466
0.746933,0.795215,0.642175,0.734587
0.746858,0.795176,0.642111,0.734513
0.746783,0.795136,0.642047,0.73444
0.746709,0.795096,0.641982,0.734367
0.746634,0.795057,0.641918,0.734293
0.746559,0.795017,0.641854,0.73422
0.746485,0.794977,0.64179,0.734146
0.74641,0.794937,0.641726,0.734073
0.746335,0.794898,0.641661,0.733999
0.746261,0.794858,0.641597,0.733926
0.746186,0.794818,0.641533,0.733853
0.746111,0.794779,0.641469,0.733779
0.746037,0.794739,0.641405,0.733706
0.745962,0.794699,0.641341,0.733633
0.745888,0.79466,0.641277,0.733559
0.745813,0.79462,0.641212,0.733486
0.745738,0.79458,0.641148,0.733412
0.745664,0.79454,0.641084,0.733339
0.745589,0.794501,0.64102,0.733266
0.745515,0.794461,0.640956,0.733192
0.74544,0.794421,0.640892,0.733119
0.745366,0.794382,0.640828,0.733046
0.745291,0.794342,0.640764,0.732973
0.745217,0.794302,0.6407,0.732899
0.745142,0.794263,0.640636,0.732826
0.745068,0.794223,0.640572,0.732753
0.744993,0.794183,0.640507,0.732679
0.744919,0.794144,0.640443,0.732606
0.744844,0.794104,0.640379,0.732533
0.74477,0.794064,0.640315,0.73246
0.744695,0.794025,0.640251,0.732386
0.744621,0.793985,0.640187,0.732313
0.744546,0.793945,0.640123,0.73224
0.744472,0.793906,0.640059,0.732167
0.744397,0.793866,0.639995,0.732093
0.744323,0.793826,0.639931,0.73202
0.744248,0.793787,0.639867,0.731947
0.744174,0.793747,0.639803,0.731874
0.7441,0.793707,0.639739,0.731801
0.744025,0.793668,0.639675,0.731727
0.743951,0.793628,0.639611,0.731654
0.743876,0.793589,0.639547,0.731581
0.743802,0.793549,0.639483,0.731508
0.743728,0.793509,0.639419,0.731435
0.743653,0.79347,0.639356,0.731362
0.743579,0.79343,0.639292,0.731289
0.743504,0.79339,0.639228,0.731215
0.74343,0.793351,0.639164,0.731142
0.743356,0.793311,0.6391,0.731069
0.743281,0.793272,0.639036,0.730996
0.743207,0.793232,0.638972,0.730923
0.743133,0.793192,0.638908,0.73085
0.743058,0.793153,0.638844,0.730777
0.742984,0.793113,0.63878,0.730704
0.74291,0.793073,0.638716,0.730631
0.742836,0.793034,0.638653,0.730558
0.742761,0.792994,0.638589,0.730485
0.742687,0.792955,0.638525,0.730411
0.742613,0.792915,0.638461,0.730338
0.742538,0.792875,0.638397,0.730265
0.742464,0.792836,0.638333,0.730192
0.74239,0.792796,0.63827,0.730119
0.742316,0.792757,0.638206,0.730046
0.742242,0.792717,0.638142,0.729973
0.742167,0.792677,0.638078,0.7299
0.742093,0.792638,0.638014,0.729827
0.742019,0.792598,0.63795,0.729754
0.741945,0.792559,0.637887,0.729681
0.74187,0.792519,0.637823,0.729608
0.741796,0.79248,0.637759,0.729535
0.741722,0.79244,0.637695,0.729463
0.741648,0.7924,0.637632,0.72939
0.741574,0.792361,0.637568,0.729317
0.7415,0.792321,0.637504,0.729244
0.741425,0.792282,0.63744,0.729171
0.741351,0.792242,0.637377,0.729098
0.741277,0.792202,0.637313,0.729025
0.741203,0.792163,0.637249,0.728952
0.741129,0.792123,0.637185,0.728879
0.741055,0.792084,0.637122,0.728806
0.740981,0.792044,0.637058,0.728733
0.740907,0.792005,0.636994,0.728661
0.740833,0.791965,0.63693,0.728588
0.740758,0.791926,0.636867,0.728515
0.740684,0.791886,0.636803,0.728442
0.74061,0.791846,0.636739,0.728369
0.740536,0.791807,0.636676,0.728296
0.740462,0.791767,0.636612,0.728223
0.740388,0.791728,0.636548,0.728151
0.740314,0.791688,0.636485,0.728078
0.74024,0.791649,0.636421,0.728005
0.740166,0.791609,0.636357,0.727932
0.740092,0.79157,0.636294,0.727859
0.740018,0.79153,0.63623,0.727787
0.739944,0.791491,0.636167,0.727714
0.73987,0.791451,0.636103,0.727641
0.739796,0.791412,0.636039,0.727568
0.739722,0.791372,0.635976,0.727496
0.739648,0.791332,0.635912,0.727423
0.739574,0.791293,0.635849,0.72735
0.7395,0.791253,0.635785,0.727277
0.739426,0.791214,0.635721,0.727205
0.739352,0.791174,0.635658,0.727132
0.739278,0.791135,0.635594,0.727059
0.739204,0.791095,0.635531,0.726986
0.73913,0.791056,0.635467,0.726914
0.739057,0.791016,0.635404,0.726841
0.738983,0.790977,0.63534,0.726768
0.738909,0.790937,0.635277,0.726696
0.738835,0.790898,0.635213,0.726623
0.738761,0.790858,0.635149,0.72655
0.738687,0.790819,0.635086,0.726478
0.738613,0.790779,0.635022,0.726405
0.738539,0.79074,0.634959,0.726332
0.738466,0.7907,0.634895,0.72626
0.738392,0.790661,0.634832,0.726187
0.738318,0.790621,0.634768,0.726115
0.738244,0.790582,0.634705,0.726042
0.73817,0.790542,0.634642,0.725969
0.738096,0.790503,0.634578,0.725897
0.738023,0.790463,0.634515,0.725824
0.737949,0.790424,0.634451,0.725752
0.737875,0.790384,0.634388,0.725679
0.737801,0.790345,0.634324,0.725606
0.737727,0.790305,0.634261,0.725534
0.737654,0.790266,0.634197,0.725461
0.73758,0.790227,0.634134,0.725389
0.737506,0.790187,0.634071,0.725316
0.737432,0.790148,0.634007,0.725244
0.737359,0.790108,0.633944,0.725171
0.737285,0.790069,0.63388,0.725099
0.737211,0.790029,0.633817,0.725026
0.737137,0.78999,0.633754,0.724954
0.737064,0.78995,0.63369,0.724881
0.73699,0.789911,0.633627,0.724809
0.736916,0.789871,0.633564,0.724736
0.736843,0.789832,0.6335,0.724664
0.736769,0.789792,0.633437,0.724591
0.736695,0.789753,0.633373,0.724519
0.736622,0.789714,0.63331,0.724446
0.736548,0.789674,0.633247,0.724374
0.736474,0.789635,0.633183,0.724301
0.736401,0.789595,0.63312,0.724229
0.736327,0.789556,0.633057,0.724157
0.736253,0.789516,0.632994,0.724084
0.73618,0.789477,0.63293,0.724012
0.736106,0.789438,0.632867,0.723939
0.736033,0.789398,0.632804,0.723867
0.735959,0.789359,0.63274,0.723795
0.735885,0.789319,0.632677,0.723722
0.735812,0.78928,0.632614,0.72365
0.735738,0.78924,0.632551,0.723577
0.735665,0.789201,0.632487,0.723505
0.735591,0.789162,0.632424,0.723433
0.735517,0.789122,0.632361,0.72336
0.735444,0.789083,0.632298,0.723288
0.73537,0.789043,0.632234,0.723216
0.735297,0.789004,0.632171,0.723143
0.735223,0.788965,0.632108,0.723071
0.73515,0.788925,0.632045,0.722999
0.735076,0.788886,0.631982,0.722926
0.735003,0.788846,0.631918,0.722854
0.734929,0.788807,0.631855,0.722782
0.734856,0.788768,0.631792,0.72271
0.734782,0.788728,0.631729,0.722637
0.734709,0.788689,0.631666,0.722565
0.734635,0.788649,0.631602,0.722493
0.734562,0.78861,0.631539,0.722421
0.734488,0.788571,0.631476,0.722348
0.734415,0.788531,0.631413,0.722276
0.734341,0.788492,0.63135,0.722204
0.734268,0.788452,0.631287,0.722132
0.734195,0.788413,0.631224,0.722059
0.734121,0.788374,0.63116,0.721987
0.734048,0.788334,0.631097,0.721915
0.733974,0.788295,0.631034,0.721843
0.733901,0.788256,0.630971,0.721771
0.733828,0.788216,0.630908,0.721698
0.733754,0.788177,0.630845,0.721626
0.733681,0.788137,0.630782,0.721554
0.733607,0.788098,0.630719,0.721482
0.733534,0.788059,0.630656,0.72141
0.733461,0.788019,0.630593,0.721338
0.733387,0.78798,0.63053,0.721266
0.733314,0.787941,0.630466,0.721193
0.733241,0.787901,0.630403,0.721121
0.733167,0.787862,0.63034,0.721049
0.733094,0.787823,0.630277,0.720977
0.733021,0.787783,0.630214,0.720905
0.732947,0.787744,0.630151,0.720833
0.732874,0.787705,0.630088,0.720761
0.732801,0.787665,0.630025,0.720689
0.732728,0.787626,0.629962,0.720617
0.732654,0.787586,0.629899,0.720545
0.732581,0.787547,0.629836,0.720473
0.732508,0.787508,0.629773,0.720401
0.732435,0.787468,0.62971,0.720328
0.732361,0.787429,0.629647,0.720256
0.732288,0.78739,0.629584,0.720184
0.732215,0.787351,0.629521,0.720112
0.732142,0.787311,0.629459,0.72004
0.732068,0.787272,0.629396,0.719968
0.731995,0.787233,0.629333,0.719896
0.731922,0.787193,0.62927,0.719824
0.731849,0.787154,0.629207,0.719752
0.731776,0.787115,0.629144,0.71968
0.731702,0.787075,0.629081,0.719608
0.731629,0.787036,0.629018,0.719537
0.731556,0.786997,0.628955,0.719465
0.731483,0.786957,0.628892,0.719393
0.73141,0.786918,0.628829,0.719321
0.731337,0.786879,0.628766,0.719249
0.731264,0.786839,0.628704,0.719177
0.73119,0.7868,0.628641,0.719105
0.731117,0.786761,0.628578,0.719033
0.731044,0.786722,0.628515,0.718961
0.730971,0.786682,0.628452,0.718889
0.730898,0.786643,0.628389,0.718817
0.730825,0.786604,0.628326,0.718745
0.730752,0.786564,0.628264,0.718674
0.730679,0.786525,0.628201,0.718602
0.730606,0.786486,0.628138,0.71853
0.730533,0.786447,0.628075,0.718458
0.73046,0.786407,0.628012,0.718386
0.730387,0.786368,0.62795,0.718314
0.730313,0.786329,0.627887,0.718242
0.73024,0.786289,0.627824,0.718171
0.730167,0.78625,0.627761,0.718099
0.730094,0.786211,0.627698,0.718027
0.730021,0.786172,0.627636,0.717955
0.729948,0.786132,0.627573,0.717883
0.729875,0.786093,0.62751,0.717812
0.729802,0.786054,0.627447,0.71774
0.729729,0.786015,0.627385,0.717668
0.729656,0.785975,0.627322,0.717596
0.729584,0.785936,0.627259,0.717525
0.729511,0.785897,0.627196,0.717453
0.729438,0.785858,0.627134,0.717381
0.729365,0.785818,0.627071,0.717309
0.729292,0.785779,0.627008,0.717238
0.729219,0.78574,0.626946,0.717166
0.729146,0.785701,0.626883,0.717094
0.729073,0.785661,0.62682,0.717022
0.729,0.785622,0.626758,0.716951
0.728927,0.785583,0.626695,0.716879
0.728854,0.785544,0.626632,0.716807
0.728781,0.785504,0.62657,0.716736
0.728708,0.785465,0.626507,0.716664
0.728636,0.785426,0.626444,0.716592
0.728563,0.785387,0.626382,0.716521
0.72849,0.785347,0.626319,0.716449
0.728417,0.785308,0.626256,0.716377
0.728344,0.785269,0.626194,0.716306
0.728271,0.78523,0.626131,0.716234
0.728199,0.785191,0.626068,0.716162
0.728126,0.785151,0.626006,0.716091
0.728053,0.785112,0.625943,0.716019
0.72798,0.785073,0.625881,0.715948
0.727907,0.785034,0.625818,0.715876
0.727835,0.784994,0.625755,0.715804
0.727762,0.784955,0.625693,0.715733
0.727689,0.784916,0.62563,0.715661
0.727616,0.784877,0.625568,0.71559
0.727543,0.784838,0.625505,0.715518
0.727471,0.784798,0.625443,0.715447
0.727398,0.784759,0.62538,0.715375
0.727325,0.78472,0.625318,0.715304
0.727252,0.784681,0.625255,0.715232
0.72718,0.784642,0.625192,0.71516
0.727107,0.784603,0.62513,0.715089
0.727034,0.784563,0.625067,0.715017
0.726962,0.784524,0.625005,0.714946
0.726889,0.784485,0.624942,0.714874
0.726816,0.784446,0.62488,0.714803
0.726744,0.784407,0.624817,0.714732
0.726671,0.784367,0.624755,0.71466
0.726598,0.784328,0.624693,0.714589
0.726526,0.784289,0.62463,0.714517
0.726453,0.78425,0.624568,0.714446
0.72638,0.784211,0.624505,0.714374
0.726308,0.784172,0.624443,0.714303
0.726235,0.784132,0.62438,0.714231
0.726162,0.784093,0.624318,0.71416
0.72609,0.784054,0.624255,0.714089
0.726017,0.784015,0.624193,0.714017
0.725945,0.783976,0.624131,0.713946
0.725872,0.783937,0.624068,0.713874
0.725799,0.783897,0.624006,0.713803
0.725727,0.783858,0.623943,0.713732
0.725654,0.783819,0.623881,0.71366
0.725582,0.78378,0.623819,0.713589
0.725509,0.783741,0.623756,0.713517
0.725437,0.783702,0.623694,0.713446
0.725364,0.783663,0.623631,0.713375
0.725291,0.783623,0.623569,0.713303
0.725219,0.783584,0.623507,0.713232
0.725146,0.783545,0.623444,0.713161
0.725074,0.783506,0.623382,0.713089
0.725001,0.783467,0.62332,0.713018
0.724929,0.783428,0.623257,0.712947
0.724856,0.783389,0.623195,0.712876
0.724784,0.783349,0.623133,0.712804
0.724711,0.78331,0.62307,0.712733
0.724639,0.783271,0.623008,0.712662
0.724566,0.783232,0.622946,0.71259
0.724494,0.783193,0.622883,0.712519
0.724422,0.783154,0.622821,0.712448
0.724349,0.783115,0.622759,0.712377
0.724277,0.783076,0.622697,0.712305
0.724204,0.783037,0.622634,0.712234
0.724132,0.782997,0.622572,0.712163
0.724059,0.782958,0.62251,0.712092
0.723987,0.782919,0.622448,0.712021
0.723915,0.78288,0.622385,0.711949
0.723842,0.782841,0.622323,0.711878
0.72377,0.782802,0.622261,0.711807
0.723697,0.782763,0.622199,0.711736
0.723625,0.782724,0.622136,0.711665
0.723553,0.782685,0.622074,0.711593
0.72348,0.782646,0.622012,0.711522
0.723408,0.782606,0.62195,0.711451
0.723336,0.782567,0.621888,0.71138
0.723263,0.782528,0.621825,0.711309
0.723191,0.782489,0.621763,0.711238
0.723119,0.78245,0.621701,0.711167
0.723046,0.782411,0.621639,0.711095
0.722974,0.782372,0.621577,0.711024
