energy,productivity,fun,hunger
0.829903,0.67541,0.917076,0.513618
0.82982,0.675326,0.944494,0.513567
0.829322,0.675243,0.944399,0.513515
0.828824,0.675159,0.944305,0.513464
0.828327,0.675075,0.944211,0.513413
0.82783,0.674992,0.944116,0.513361
0.827333,0.674908,0.944022,0.51331
0.826837,0.674824,0.943927,0.513259
0.826341,0.67474,0.943833,0.513207
0.825845,0.674657,0.943738,0.513156
0.82535,0.674573,0.943644,0.513105
0.824854,0.67449,0.94355,0.513053
0.82436,0.674406,0.943455,0.513002
0.823865,0.674322,0.943361,0.512951
0.823371,0.674239,0.943267,0.512899
0.822877,0.674155,0.943172,0.512848
0.822383,0.674071,0.943078,0.512797
0.82189,0.673988,0.942984,0.512746
0.821397,0.673904,0.942889,0.512694
0.820904,0.673821,0.942795,0.512643
0.820411,0.673737,0.942701,0.512592
0.819919,0.673654,0.942607,0.512541
0.819427,0.67357,0.942512,0.512489
0.818936,0.673487,0.942418,0.512438
0.818444,0.673403,0.942324,0.512387
0.817953,0.67332,0.94223,0.512336
0.817463,0.673236,0.942135,0.512284
0.816972,0.673153,0.942041,0.512233
0.816482,0.673069,0.941947,0.512182
0.815992,0.672986,0.941853,0.512131
0.815503,0.672902,0.941759,0.512079
0.815013,0.672819,0.941664,0.512028
0.814524,0.672735,0.94157,0.511977
0.814036,0.672652,0.941476,0.511926
0.813954,0.672569,0.941382,0.511875
0.813873,0.672485,0.969526,0.511823
0.813385,0.672402,0.96943,0.511772
0.812897,0.672318,0.969333,0.511721
0.812409,0.672235,0.969236,0.51167
0.811921,0.672152,0.969139,0.511619
0.811434,0.672068,0.969042,0.511568
0.810948,0.671985,0.968945,0.511516
0.810461,0.671902,0.968848,0.511465
0.809975,0.671818,0.968751,0.511414
0.809489,0.671735,0.968654,0.511363
0.809003,0.671652,0.968557,0.511312
0.808518,0.671569,0.968461,0.511261
0.808033,0.671485,0.968364,0.51121
0.807548,0.671402,0.968267,0.511158
0.807063,0.671319,0.96817,0.511107
0.806579,0.671236,0.968073,0.511056
0.806095,0.671152,0.967976,0.511005
0.805612,0.671069,0.96788,0.510954
0.805128,0.670986,0.967783,0.510903
0.805048,0.670903,0.967686,0.510852
0.804967,0.670819,0.996617,0.510801
0.804484,0.670736,0.996517,0.51075
0.804002,0.670653,0.996418,0.510699
0.803519,0.67057,0.996318,0.510648
0.803037,0.670487,0.996218,0.510596
0.802556,0.670404,0.996119,0.510545
0.802074,0.670321,0.996019,0.510494
0.801593,0.670237,0.99592,0.510443
0.801112,0.670154,0.99582,0.510392
0.800631,0.670071,0.99572,0.510341
0.800151,0.669988,0.995621,0.51029
0.799671,0.669905,0.995521,0.510239
0.799191,0.669822,0.995422,0.510188
0.798712,0.669739,0.995322,0.510137
0.798233,0.669656,0.995223,0.510086
0.797754,0.669573,0.995123,0.510035
0.797275,0.66949,0.995024,0.509984
0.796797,0.669407,0.994924,0.509933
0.796319,0.669324,0.994825,0.509882
0.795841,0.669241,0.994725,0.509831
0.795363,0.669158,0.994626,0.50978
0.795284,0.669075,0.994526,0.509729
0.795204,0.668992,1,0.509678
0.794727,0.668909,0.9999,0.509627
0.79425,0.668826,0.9998,0.509576
0.793774,0.668743,0.9997,0.509525
0.793298,0.66866,0.9996,0.509474
0.792822,0.668577,0.9995,0.509423
0.792346,0.668494,0.9994,0.509372
0.791871,0.668411,0.9993,0.509322
0.791396,0.668329,0.9992,0.509271
0.790921,0.668246,0.9991,0.50922
0.790446,0.668163,0.999,0.509169
0.790367,0.66808,0.998901,0.509118
0.790288,0.667997,1,0.509067
0.789814,0.667914,0.9999,0.509016
0.78934,0.667832,0.9998,0.508965
0.788867,0.667749,0.9997,0.508914
0.788393,0.667666,0.9996,0.508863
0.78792,0.667583,0.9995,0.508812
0.787448,0.6675,0.9994,0.508762
0.786975,0.667418,0.9993,0.508711
0.786503,0.667335,0.9992,0.50866
0.786031,0.667252,0.9991,0.508609
0.78556,0.667169,0.999,0.508558
0.785088,0.667087,0.998901,0.508507
0.784617,0.667004,0.998801,0.508456
0.784147,0.666921,0.998701,0.508406
0.783676,0.666839,0.998601,0.508355
0.783206,0.666756,0.998501,0.508304
0.782736,0.666673,0.998401,0.508253
0.782267,0.666591,0.998301,0.508202
0.781797,0.666508,0.998202,0.508151
0.781328,0.666425,0.998102,0.508101
0.78125,0.666343,0.998002,0.50805
0.781172,0.66626,1,0.507999
0.780703,0.666177,0.9999,0.507948
0.780235,0.666095,0.9998,0.507897
0.779767,0.666012,0.9997,0.507847
0.779299,0.66593,0.9996,0.507796
0.778831,0.665847,0.9995,0.507745
0.778364,0.665764,0.9994,0.507694
0.777897,0.665682,0.9993,0.507643
0.777431,0.665599,0.9992,0.507593
0.776964,0.665517,0.9991,0.507542
0.776498,0.665434,0.999,0.507491
0.776032,0.665352,0.998901,0.50744
0.775567,0.665269,0.998801,0.50739
0.775101,0.665187,0.998701,0.507339
0.774636,0.665104,0.998601,0.507288
0.774171,0.665022,0.998501,0.507237
0.773707,0.664939,0.998401,0.507187
0.773243,0.664857,0.998301,0.507136
0.772779,0.664774,0.998202,0.507085
0.772315,0.664692,0.998102,0.507035
0.771852,0.66461,0.998002,0.506984
0.771389,0.664527,0.997902,0.506933
0.770926,0.664445,0.997802,0.506883
0.770464,0.664362,0.997703,0.506832
0.770001,0.66428,0.997603,0.506781
0.769539,0.664198,0.997503,0.50673
0.769078,0.664115,0.997403,0.50668
0.768616,0.664033,0.997304,0.506629
0.768155,0.663951,0.997204,0.506578
0.767694,0.663868,0.997104,0.506528
0.767234,0.663786,0.997004,0.506477
0.766773,0.663704,0.996905,0.506427
0.766313,0.663621,0.996805,0.506376
0.765854,0.663539,0.996705,0.506325
0.765394,0.663457,0.996606,0.506275
0.764935,0.663375,0.996506,0.506224
0.764476,0.663292,0.996406,0.506173
0.764017,0.66321,0.996307,0.506123
0.763559,0.663128,0.996207,0.506072
0.763101,0.663046,0.996107,0.506022
0.762643,0.662963,0.996008,0.505971
0.762186,0.662881,0.995908,0.50592
0.761728,0.662799,0.995809,0.50587
0.761271,0.662717,0.995709,0.505819
0.760815,0.662635,0.995609,0.505769
0.760358,0.662553,0.99551,0.505718
0.759902,0.66247,0.99541,0.505667
0.759446,0.662388,0.995311,0.505617
0.75899,0.662306,0.995211,0.505566
0.758914,0.662224,0.995112,0.505516
0.758839,0.662142,1,0.505465
0.758383,0.66206,0.9999,0.505415
0.757928,0.661978,0.9998,0.505364
0.757474,0.661896,0.9997,0.505314
0.757019,0.661813,0.9996,0.505263
0.756565,0.661731,0.9995,0.505212
0.756111,0.661649,0.9994,0.505162
0.755657,0.661567,0.9993,0.505111
0.755204,0.661485,0.9992,0.505061
0.755129,0.661403,0.9991,0.50501
0.755053,0.661321,1,0.50496
0.7546,0.661239,0.9999,0.504909
0.754147,0.661157,0.9998,0.504859
0.753695,0.661075,0.9997,0.504808
0.753243,0.660993,0.9996,0.504758
0.752791,0.660911,0.9995,0.504707
0.752339,0.660829,0.9994,0.504657
0.751888,0.660747,0.9993,0.504607
0.751437,0.660666,0.9992,0.504556
0.750986,0.660584,0.9991,0.504506
0.750535,0.660502,0.999,0.504455
0.750085,0.66042,0.998901,0.504405
0.749635,0.660338,0.998801,0.504354
0.749185,0.660256,0.998701,0.504304
0.748736,0.660174,0.998601,0.504253
0.748287,0.660092,0.998501,0.504203
0.747838,0.66001,0.998401,0.504153
0.747389,0.659929,0.998301,0.504102
0.746941,0.659847,0.998202,0.504052
0.746493,0.659765,0.998102,0.504001
0.746045,0.659683,0.998002,0.503951
0.745597,0.659601,0.997902,0.503901
0.74515,0.65952,0.997802,0.50385
0.744703,0.659438,0.997703,0.5038
0.744256,0.659356,0.997603,0.503749
0.743809,0.659274,0.997503,0.503699
0.743363,0.659193,0.997403,0.503649
0.742917,0.659111,0.997304,0.503598
0.742471,0.659029,0.997204,0.503548
0.742026,0.658947,0.997104,0.503498
0.741581,0.658866,0.997004,0.503447
0.741136,0.658784,0.996905,0.503397
0.740691,0.658702,0.996805,0.503347
0.740247,0.658621,0.996705,0.503296
0.739803,0.658539,0.996606,0.503246
0.739359,0.658457,0.996506,0.503196
0.738915,0.658376,0.996406,0.503145
0.738472,0.658294,0.996307,0.503095
0.738029,0.658212,0.996207,0.503045
0.737586,0.658131,0.996107,0.502994
0.737144,0.658049,0.996008,0.502944
0.736701,0.657968,0.995908,0.502894
0.736259,0.657886,0.995809,0.502843
0.735818,0.657804,0.995709,0.502793
0.735376,0.657723,0.995609,0.502743
0.734935,0.657641,0.99551,0.502693
0.734494,0.65756,0.99541,0.502642
0.734054,0.657478,0.995311,0.502592
0.733613,0.657397,0.995211,0.502542
0.733173,0.657315,0.995112,0.502492
0.732733,0.657234,0.995012,0.502441
0.732294,0.657152,0.994913,0.502391
0.731854,0.657071,0.994813,0.502341
0.731415,0.656989,0.994714,0.502291
0.730976,0.656908,0.994614,0.50224
0.730538,0.656826,0.994515,0.50219
0.730099,0.656745,0.994415,0.50214
0.729661,0.656663,0.994316,0.50209
0.729224,0.656582,0.994216,0.502039
0.729151,0.656501,0.994117,0.501989
0.729078,0.656419,1,0.501939
0.72864,0.656338,0.9999,0.501889
0.728203,0.656256,0.9998,0.501839
0.727766,0.656175,0.9997,0.501789
0.72733,0.656094,0.9996,0.501738
0.726893,0.656012,0.9995,0.501688
0.726457,0.655931,0.9994,0.501638
0.726021,0.65585,0.9993,0.501588
0.725586,0.655768,0.9992,0.501538
0.725151,0.655687,0.9991,0.501488
0.724716,0.655606,0.999,0.501437
0.724281,0.655524,0.998901,0.501387
0.723846,0.655443,0.998801,0.501337
0.723412,0.655362,0.998701,0.501287
0.722978,0.655281,0.998601,0.501237
0.722544,0.655199,0.998501,0.501187
0.722111,0.655118,0.998401,0.501137
0.721677,0.655037,0.998301,0.501086
0.721244,0.654956,0.998202,0.501036
0.720812,0.654874,0.998102,0.500986
0.720379,0.654793,0.998002,0.500936
0.719947,0.654712,0.997902,0.500886
0.719515,0.654631,0.997802,0.500836
0.719084,0.65455,0.997703,0.500786
0.718652,0.654469,0.997603,0.500736
0.718221,0.654387,0.997503,0.500686
0.71779,0.654306,0.997403,0.500636
0.717359,0.654225,0.997304,0.500586
0.716929,0.654144,0.997204,0.500536
0.716499,0.654063,0.997104,0.500486
0.716069,0.653982,0.997004,0.500435
0.715639,0.653901,0.996905,0.500385
0.71521,0.65382,0.996805,0.500335
0.714781,0.653739,0.996705,0.500285
0.714352,0.653658,0.996606,0.500235
0.713924,0.653576,0.996506,0.500185
0.713495,0.653495,0.996406,0.500135
0.713067,0.653414,0.996307,0.500085
0.712639,0.653333,0.996207,0.500035
0.712212,0.653252,0.996107,0.499985
0.711785,0.653171,0.996008,0.499935
0.711713,0.65309,0.995908,0.499885
0.711642,0.653009,1,0.499835
0.711215,0.652928,0.9999,0.499785
0.710789,0.652847,0.9998,0.499735
0.710362,0.652767,0.9997,0.499685
0.709936,0.652686,0.9996,0.499635
0.70951,0.652605,0.9995,0.499585
0.709084,0.652524,0.9994,0.499535
0.708659,0.652443,0.9993,0.499485
0.708234,0.652362,0.9992,0.499436
0.707809,0.652281,0.9991,0.499386
0.707384,0.6522,0.999,0.499336
0.70696,0.652119,0.998901,0.499286
0.706536,0.652038,0.998801,0.499236
0.706112,0.651958,0.998701,0.499186
0.705688,0.651877,0.998601,0.499136
0.705265,0.651796,0.998501,0.499086
0.704842,0.651715,0.998401,0.499036
0.704419,0.651634,0.998301,0.498986
0.703996,0.651553,0.998202,0.498936
0.703926,0.651473,0.998102,0.498886
0.703855,0.651392,1,0.498837
0.703433,0.651311,0.9999,0.498787
0.703011,0.65123,0.9998,0.498737
0.702589,0.65115,0.9997,0.498687
0.702168,0.651069,0.9996,0.498637
0.701747,0.650988,0.9995,0.498587
0.701326,0.650907,0.9994,0.498537
0.700905,0.650827,0.9993,0.498487
0.700484,0.650746,0.9992,0.498438
0.700064,0.650665,0.9991,0.498388
0.699644,0.650585,0.999,0.498338
0.699224,0.650504,0.998901,0.498288
0.698805,0.650423,0.998801,0.498238
0.698386,0.650343,0.998701,0.498188
0.697967,0.650262,0.998601,0.498139
0.697548,0.650181,0.998501,0.498089
0.697129,0.650101,0.998401,0.498039
0.696711,0.65002,0.998301,0.497989
0.696293,0.64994,0.998202,0.497939
0.695875,0.649859,0.998102,0.49789
0.695458,0.649778,0.998002,0.49784
0.695041,0.649698,0.997902,0.49779
0.694624,0.649617,0.997802,0.49774
0.694207,0.649537,0.997703,0.49769
0.69379,0.649456,0.997603,0.497641
0.693374,0.649376,0.997503,0.497591
0.692958,0.649295,0.997403,0.497541
0.692542,0.649215,0.997304,0.497491
0.692473,0.649134,0.997204,0.497442
0.692404,0.649054,1,0.497392
0.691988,0.648973,0.9999,0.497342
0.691573,0.648893,0.9998,0.497292
0.691158,0.648812,0.9997,0.497243
0.690744,0.648732,0.9996,0.497193
0.690329,0.648651,0.9995,0.497143
0.689915,0.648571,0.9994,0.497094
0.689501,0.648491,0.9993,0.497044
0.689088,0.64841,0.9992,0.496994
0.688674,0.64833,0.9991,0.496944
0.688261,0.648249,0.999,0.496895
0.687848,0.648169,0.998901,0.496845
0.687435,0.648089,0.998801,0.496795
0.687023,0.648008,0.998701,0.496746
0.686611,0.647928,0.998601,0.496696
0.686199,0.647848,0.998501,0.496646
0.685787,0.647767,0.998401,0.496597
0.685376,0.647687,0.998301,0.496547
0.684965,0.647607,0.998202,0.496497
0.684554,0.647526,0.998102,0.496448
0.684143,0.647446,0.998002,0.496398
0.683732,0.647366,0.997902,0.496348
0.683322,0.647285,0.997802,0.496299
0.682912,0.647205,0.997703,0.496249
0.682503,0.647125,0.997603,0.4962
0.682093,0.647045,0.997503,0.49615
0.681684,0.646964,0.997403,0.4961
0.681275,0.646884,0.997304,0.496051
0.680866,0.646804,0.997204,0.496001
0.680458,0.646724,0.997104,0.495952
0.680049,0.646644,0.997004,0.495902
0.679641,0.646563,0.996905,0.495852
0.679234,0.646483,0.996805,0.495803
0.678826,0.646403,0.996705,0.495753
0.678419,0.646323,0.996606,0.495704
0.678351,0.646243,0.996506,0.495654
0.678283,0.646163,1,0.495604
0.677876,0.646083,0.9999,0.495555
0.67747,0.646002,0.9998,0.495505
0.677063,0.645922,0.9997,0.495456
0.676657,0.645842,0.9996,0.495406
0.676251,0.645762,0.9995,0.495357
0.675845,0.645682,0.9994,0.495307
0.67544,0.645602,0.9993,0.495258
0.675035,0.645522,0.9992,0.495208
0.67463,0.645442,0.9991,0.495159
0.674225,0.645362,0.999,0.495109
0.67382,0.645282,0.998901,0.49506
0.673416,0.645202,0.998801,0.49501
0.673012,0.645122,0.998701,0.494961
0.672608,0.645042,0.998601,0.494911
0.672205,0.644962,0.998501,0.494862
0.671801,0.644882,0.998401,0.494812
0.671398,0.644802,0.998301,0.494763
0.670996,0.644722,0.998202,0.494713
0.670593,0.644642,0.998102,0.494664
0.670191,0.644562,0.998002,0.494614
0.670124,0.644482,0.997902,0.494565
0.670057,0.644402,1,0.494515
0.669655,0.644322,0.9999,0.494466
0.669253,0.644243,0.9998,0.494416
0.668851,0.644163,0.9997,0.494367
0.66845,0.644083,0.9996,0.494317
0.668049,0.644003,0.9995,0.494268
0.667648,0.643923,0.9994,0.494219
0.667248,0.643843,0.9993,0.494169
0.666847,0.643763,0.9992,0.49412
0.666447,0.643684,0.9991,0.49407
0.666048,0.643604,0.999,0.494021
0.665648,0.643524,0.998901,0.493972
0.665249,0.643444,0.998801,0.493922
0.664849,0.643364,0.998701,0.493873
0.664451,0.643285,0.998601,0.493823
0.664052,0.643205,0.998501,0.493774
0.663654,0.643125,0.998401,0.493725
0.663255,0.643045,0.998301,0.493675
0.662858,0.642966,0.998202,0.493626
0.66246,0.642886,0.998102,0.493577
0.662062,0.642806,0.998002,0.493527
0.661665,0.642726,0.997902,0.493478
0.661268,0.642647,0.997802,0.493428
0.661202,0.642567,0.997703,0.493379
0.661136,0.642487,1,0.49333
0.660739,0.642408,0.9999,0.49328
0.660343,0.642328,0.9998,0.493231
0.659947,0.642248,0.9997,0.493182
0.659551,0.642169,0.9996,0.493132
0.659155,0.642089,0.9995,0.493083
0.65876,0.64201,0.9994,0.493034
0.658364,0.64193,0.9993,0.492985
0.657969,0.64185,0.9992,0.492935
0.657575,0.641771,0.9991,0.492886
0.65718,0.641691,0.999,0.492837
0.656786,0.641612,0.998901,0.492787
0.656392,0.641532,0.998801,0.492738
0.655998,0.641453,0.998701,0.492689
0.655604,0.641373,0.998601,0.49264
0.655211,0.641293,0.998501,0.49259
0.654818,0.641214,0.998401,0.492541
0.654425,0.641134,0.998301,0.492492
0.654033,0.641055,0.998202,0.492443
0.65364,0.640975,0.998102,0.492393
0.653248,0.640896,0.998002,0.492344
0.652856,0.640817,0.997902,0.492295
0.652791,0.640737,0.997802,0.492246
0.652726,0.640658,1,0.492196
0.652334,0.640578,0.9999,0.492147
0.651943,0.640499,0.9998,0.492098
0.651551,0.640419,0.9997,0.492049
0.651161,0.64034,0.9996,0.492
0.65077,0.640261,0.9995,0.49195
0.650379,0.640181,0.9994,0.491901
0.649989,0.640102,0.9993,0.491852
0.649599,0.640022,0.9992,0.491803
0.64921,0.639943,0.9991,0.491754
0.64882,0.639864,0.999,0.491704
0.648431,0.639784,0.998901,0.491655
0.648042,0.639705,0.998801,0.491606
0.647977,0.639626,0.998701,0.491557
0.647912,0.639546,1,0.491508
0.647523,0.639467,0.9999,0.491459
0.647135,0.639388,0.9998,0.491409
0.646747,0.639309,0.9997,0.49136
0.646359,0.639229,0.9996,0.491311
0.645971,0.63915,0.9995,0.491262
0.645583,0.639071,0.9994,0.491213
0.645196,0.638991,0.9993,0.491164
0.644809,0.638912,0.9992,0.491115
0.644422,0.638833,0.9991,0.491066
0.644036,0.638754,0.999,0.491016
0.643649,0.638675,0.998901,0.490967
0.643263,0.638595,0.998801,0.490918
0.643199,0.638516,0.998701,0.490869
0.643134,0.638437,1,0.49082
0.642748,0.638358,0.9999,0.490771
0.642363,0.638279,0.9998,0.490722
0.641977,0.6382,0.9997,0.490673
0.641592,0.63812,0.9996,0.490624
0.641207,0.638041,0.9995,0.490575
0.640823,0.637962,0.9994,0.490526
0.640438,0.637883,0.9993,0.490477
0.640054,0.637804,0.9992,0.490428
0.63967,0.637725,0.9991,0.490379
0.639286,0.637646,0.999,0.490329
0.638903,0.637567,0.998901,0.49028
0.638519,0.637488,0.998801,0.490231
0.638136,0.637409,0.998701,0.490182
0.637753,0.63733,0.998601,0.490133
0.637371,0.637251,0.998501,0.490084
0.636988,0.637172,0.998401,0.490035
0.636606,0.637093,0.998301,0.489986
0.636224,0.637014,0.998202,0.489937
0.635843,0.636935,0.998102,0.489888
0.635461,0.636856,0.998002,0.489839
0.63508,0.636777,0.997902,0.48979
0.634699,0.636698,0.997802,0.489741
0.634318,0.636619,0.997703,0.489692
0.633938,0.63654,0.997603,0.489643
0.633557,0.636461,0.997503,0.489595
0.633177,0.636382,0.997403,0.489546
0.632797,0.636303,0.997304,0.489497
0.632418,0.636224,0.997204,0.489448
0.632038,0.636145,0.997104,0.489399
0.631659,0.636066,0.997004,0.48935
0.63128,0.635988,0.996905,0.489301
0.630901,0.635909,0.996805,0.489252
0.630523,0.63583,0.996705,0.489203
0.630145,0.635751,0.996606,0.489154
0.629766,0.635672,0.996506,0.489105
0.629389,0.635593,0.996406,0.489056
0.629326,0.635515,0.996307,0.489007
0.629263,0.635436,1,0.488958
0.628885,0.635357,0.9999,0.48891
0.628508,0.635278,0.9998,0.488861
0.628131,0.635199,0.9997,0.488812
0.627754,0.635121,0.9996,0.488763
0.627377,0.635042,0.9995,0.488714
0.627001,0.634963,0.9994,0.488665
0.626625,0.634884,0.9993,0.488616
0.626249,0.634806,0.9992,0.488567
0.625873,0.634727,0.9991,0.488519
0.625498,0.634648,0.999,0.48847
0.625122,0.63457,0.998901,0.488421
0.624747,0.634491,0.998801,0.488372
0.624373,0.634412,0.998701,0.488323
0.623998,0.634334,0.998601,0.488274
0.623624,0.634255,0.998501,0.488226
0.623249,0.634176,0.998401,0.488177
0.622876,0.634098,0.998301,0.488128
0.622502,0.634019,0.998202,0.488079
0.62244,0.63394,0.998102,0.48803
0.622377,0.633862,1,0.487981
0.622004,0.633783,0.9999,0.487933
0.621631,0.633705,0.9998,0.487884
0.621258,0.633626,0.9997,0.487835
0.620885,0.633547,0.9996,0.487786
0.620513,0.633469,0.9995,0.487737
0.62014,0.63339,0.9994,0.487689
0.619768,0.633312,0.9993,0.48764
0.619396,0.633233,0.9992,0.487591
0.619025,0.633155,0.9991,0.487542
0.618653,0.633076,0.999,0.487494
0.618282,0.632998,0.998901,0.487445
0.617911,0.632919,0.998801,0.487396
0.617541,0.632841,0.998701,0.487347
0.61717,0.632762,0.998601,0.487299
0.6168,0.632684,0.998501,0.48725
0.61643,0.632605,0.998401,0.487201
0.616368,0.632527,0.998301,0.487153
0.616307,0.632449,1,0.487104
0.615937,0.63237,0.9999,0.487055
0.615567,0.632292,0.9998,0.487006
0.615198,0.632213,0.9997,0.486958
0.614829,0.632135,0.9996,0.486909
0.61446,0.632057,0.9995,0.48686
0.614091,0.631978,0.9994,0.486812
0.613723,0.6319,0.9993,0.486763
0.613355,0.631821,0.9992,0.486714
0.612987,0.631743,0.9991,0.486666
0.612619,0.631665,0.999,0.486617
0.612251,0.631586,0.998901,0.486568
0.611884,0.631508,0.998801,0.48652
0.611517,0.63143,0.998701,0.486471
0.61115,0.631352,0.998601,0.486422
0.610783,0.631273,0.998501,0.486374
0.610417,0.631195,0.998401,0.486325
0.610051,0.631117,0.998301,0.486276
0.609685,0.631039,0.998202,0.486228
0.609319,0.63096,0.998102,0.486179
0.608953,0.630882,0.998002,0.486131
0.608588,0.630804,0.997902,0.486082
0.608223,0.630726,0.997802,0.486033
0.607858,0.630647,0.997703,0.485985
0.607493,0.630569,0.997603,0.485936
0.607129,0.630491,0.997503,0.485888
0.606765,0.630413,0.997403,0.485839
0.606401,0.630335,0.997304,0.48579
0.606037,0.630256,0.997204,0.485742
0.605976,0.630178,0.997104,0.485693
0.605916,0.6301,1,0.485645
0.605552,0.630022,0.9999,0.485596
0.605189,0.629944,0.9998,0.485547
0.604826,0.629866,0.9997,0.485499
0.604463,0.629788,0.9996,0.48545
0.6041,0.62971,0.9995,0.485402
0.603738,0.629632,0.9994,0.485353
0.603376,0.629553,0.9993,0.485305
0.603014,0.629475,0.9992,0.485256
0.602652,0.629397,0.9991,0.485208
0.60229,0.629319,0.999,0.485159
0.601929,0.629241,0.998901,0.485111
0.601568,0.629163,0.998801,0.485062
0.601207,0.629085,0.998701,0.485014
