energy,productivity,fun,hunger
0.83145,0.54591,0.606988,0.801499
0.831366,0.545873,0.625135,0.801419
0.830868,0.545836,0.643824,0.801339
0.830369,0.545798,0.663073,0.801259
0.829871,0.545761,0.682897,0.801179
0.829373,0.545724,0.703313,0.801099
0.828876,0.545687,0.72434,0.801019
0.828378,0.54565,0.724268,0.800939
0.827881,0.545613,0.724195,0.800858
0.827385,0.545576,0.724123,0.800778
0.826888,0.545539,0.724051,0.800698
0.826392,0.545502,0.723978,0.800618
0.825896,0.545464,0.723906,0.800538
0.825401,0.545427,0.723833,0.800458
0.824906,0.54539,0.723761,0.800378
0.824411,0.545353,0.723689,0.800298
0.823916,0.545316,0.723616,0.800218
0.823422,0.545279,0.723544,0.800138
0.822928,0.545242,0.723472,0.800058
0.822434,0.545205,0.723399,0.799978
0.821941,0.545168,0.723327,0.799898
0.821448,0.545131,0.723255,0.799818
0.820955,0.545094,0.723182,0.799738
0.820462,0.545057,0.72311,0.799658
0.81997,0.545019,0.723038,0.799578
0.819478,0.544982,0.722965,0.799498
0.818986,0.544945,0.722893,0.799418
0.818495,0.544908,0.722821,0.799338
0.818004,0.544871,0.722748,0.799258
0.817513,0.544834,0.722676,0.799178
0.817023,0.544797,0.722604,0.799098
0.816533,0.54476,0.722532,0.799019
0.816043,0.544723,0.722459,0.798939
0.815553,0.544686,0.722387,0.798859
0.815064,0.544649,0.722315,0.798779
0.814575,0.544612,0.722243,0.798699
0.814086,0.544575,0.72217,0.798619
0.813598,0.544538,0.722098,0.798539
0.81311,0.544501,0.722026,0.798459
0.812622,0.544464,0.721954,0.79838
0.812134,0.544427,0.721882,0.7983
0.811647,0.54439,0.721809,0.79822
0.81116,0.544353,0.721737,0.79814
0.810673,0.544316,0.721665,0.79806
0.810187,0.544279,0.721593,0.79798
0.809701,0.544242,0.721521,0.797901
0.809215,0.544205,0.721449,0.797821
0.80873,0.544168,0.721376,0.797741
0.808244,0.544131,0.721304,0.797661
0.808164,0.544094,0.721232,0.797581
0.808083,0.544057,0.72116,0.797502
0.808002,0.54402,0.721088,0.797422
0.807921,0.543983,0.721016,0.797342
0.80784,0.543946,0.720944,0.797263
0.80776,0.543909,0.720872,0.797183
0.807679,0.543872,0.7208,0.797103
0.807598,0.543835,0.720727,0.797023
0.807517,0.543798,0.720655,0.796944
0.807437,0.543761,0.720583,0.796864
0.807356,0.543724,0.720511,0.796784
0.807275,0.543687,0.720439,0.796705
0.807194,0.54365,0.720367,0.796625
0.807114,0.543613,0.720295,0.796545
0.807033,0.543576,0.720223,0.796466
0.806952,0.543539,0.720151,0.796386
0.806872,0.543502,0.720079,0.796306
0.806791,0.543465,0.720007,0.796227
0.80671,0.543428,0.719935,0.796147
0.80663,0.543391,0.719863,0.796067
0.806549,0.543354,0.719791,0.795988
0.806468,0.543317,0.719719,0.795908
0.806388,0.54328,0.719647,0.795829
0.806307,0.543243,0.719575,0.795749
0.806226,0.543206,0.719503,0.795669
0.806146,0.543169,0.719431,0.79559
0.806065,0.543132,0.719359,0.79551
0.805984,0.543095,0.719287,0.795431
0.805904,0.543058,0.719215,0.795351
0.805823,0.543022,0.719143,0.795272
0.805743,0.542985,0.719072,0.795192
0.805662,0.542948,0.719,0.795113
0.805582,0.542911,0.718928,0.795033
0.805501,0.542874,0.718856,0.794954
0.80542,0.542837,0.718784,0.794874
0.80534,0.5428,0.718712,0.794795
0.805259,0.542763,0.71864,0.794715
0.805179,0.542726,0.718568,0.794636
0.805098,0.542689,0.718497,0.794556
0.805018,0.542652,0.718425,0.794477
0.804937,0.542615,0.718353,0.794397
0.804857,0.542579,0.718281,0.794318
0.804776,0.542542,0.718209,0.794239
0.804696,0.542505,0.718137,0.794159
0.804615,0.542468,0.718066,0.79408
0.804535,0.542431,0.717994,0.794
0.804454,0.542394,0.717922,0.793921
0.804374,0.542357,0.71785,0.793841
0.804294,0.54232,0.717778,0.793762
0.804213,0.542283,0.717707,0.793683
0.804133,0.542247,0.717635,0.793603
0.804052,0.54221,0.717563,0.793524
0.803972,0.542173,0.717491,0.793445
0.803892,0.542136,0.71742,0.793365
0.803811,0.542099,0.717348,0.793286
0.803731,0.542062,0.717276,0.793207
0.80365,0.542025,0.717204,0.793127
0.80357,0.541988,0.717133,0.793048
0.80349,0.541952,0.717061,0.792969
0.803409,0.541915,0.716989,0.792889
0.803329,0.541878,0.716917,0.79281
0.803249,0.541841,0.716846,0.792731
0.803168,0.541804,0.716774,0.792652
0.803088,0.541767,0.716702,0.792572
0.803008,0.54173,0.716631,0.792493
0.802927,0.541694,0.716559,0.792414
0.802847,0.541657,0.716487,0.792335
0.802767,0.54162,0.716416,0.792255
0.802687,0.541583,0.716344,0.792176
0.802606,0.541546,0.716273,0.792097
0.802526,0.541509,0.716201,0.792018
0.802446,0.541473,0.716129,0.791938
0.802366,0.541436,0.716058,0.791859
0.802285,0.541399,0.715986,0.79178
0.802205,0.541362,0.715914,0.791701
0.802125,0.541325,0.715843,0.791622
0.802045,0.541289,0.715771,0.791543
0.801964,0.541252,0.7157,0.791463
0.801884,0.541215,0.715628,0.791384
0.801804,0.541178,0.715557,0.791305
0.801724,0.541141,0.715485,0.791226
0.801644,0.541105,0.715413,0.791147
0.801563,0.541068,0.715342,0.791068
0.801483,0.541031,0.71527,0.790989
0.801403,0.540994,0.715199,0.79091
0.801323,0.540957,0.715127,0.79083
0.801243,0.540921,0.715056,0.790751
0.801163,0.540884,0.714984,0.790672
0.801083,0.540847,0.714913,0.790593
0.801003,0.54081,0.714841,0.790514
0.800922,0.540773,0.71477,0.790435
0.800842,0.540737,0.714698,0.790356
0.800762,0.5407,0.714627,0.790277
0.800682,0.540663,0.714555,0.790198
0.800602,0.540626,0.714484,0.790119
0.800522,0.54059,0.714413,0.79004
0.800442,0.540553,0.714341,0.789961
0.800362,0.540516,0.71427,0.789882
0.800282,0.540479,0.714198,0.789803
0.800202,0.540443,0.714127,0.789724
0.800122,0.540406,0.714055,0.789645
0.800042,0.540369,0.713984,0.789566
0.799962,0.540332,0.713913,0.789487
0.799882,0.540296,0.713841,0.789408
0.799802,0.540259,0.71377,0.789329
0.799722,0.540222,0.713698,0.78925
0.799642,0.540185,0.713627,0.789171
0.799562,0.540149,0.713556,0.789092
0.799482,0.540112,0.713484,0.789014
0.799402,0.540075,0.713413,0.788935
0.799322,0.540038,0.713342,0.788856
0.799242,0.540002,0.71327,0.788777
0.799162,0.539965,0.713199,0.788698
0.799082,0.539928,0.713128,0.788619
0.799002,0.539891,0.713056,0.78854
0.798923,0.539855,0.712985,0.788461
0.798843,0.539818,0.712914,0.788383
0.798763,0.539781,0.712842,0.788304
0.798683,0.539745,0.712771,0.788225
0.798603,0.539708,0.7127,0.788146
0.798523,0.539671,0.712629,0.788067
0.798443,0.539635,0.712557,0.787988
0.798363,0.539598,0.712486,0.78791
0.798284,0.539561,0.712415,0.787831
0.798204,0.539524,0.712344,0.787752
0.798124,0.539488,0.712272,0.787673
0.798044,0.539451,0.712201,0.787595
0.797964,0.539414,0.71213,0.787516
0.797885,0.539378,0.712059,0.787437
0.797805,0.539341,0.711988,0.787358
0.797725,0.539304,0.711916,0.78728
0.797645,0.539268,0.711845,0.787201
0.797565,0.539231,0.711774,0.787122
0.797486,0.539194,0.711703,0.787043
0.797406,0.539158,0.711632,0.786965
0.797326,0.539121,0.71156,0.786886
0.797247,0.539084,0.711489,0.786807
0.797167,0.539048,0.711418,0.786729
0.797087,0.539011,0.711347,0.78665
0.797007,0.538974,0.711276,0.786571
0.796928,0.538938,0.711205,0.786493
0.796848,0.538901,0.711134,0.786414
0.796768,0.538864,0.711063,0.786335
0.796689,0.538828,0.710991,0.786257
0.796609,0.538791,0.71092,0.786178
0.796529,0.538754,0.710849,0.786099
0.79645,0.538718,0.710778,0.786021
0.79637,0.538681,0.710707,0.785942
0.79629,0.538645,0.710636,0.785864
0.796211,0.538608,0.710565,0.785785
0.796131,0.538571,0.710494,0.785706
0.796051,0.538535,0.710423,0.785628
0.795972,0.538498,0.710352,0.785549
0.795892,0.538461,0.731589,0.785471
0.795415,0.538425,0.731516,0.785392
0.794938,0.538388,0.731443,0.785314
0.794461,0.538352,0.73137,0.785235
0.793984,0.538315,0.731297,0.785157
0.793508,0.538278,0.731223,0.785078
0.793032,0.538242,0.73115,0.785
0.792556,0.538205,0.731077,0.784921
0.79208,0.538168,0.731004,0.784843
0.792001,0.538132,0.730931,0.784764
0.791922,0.538095,0.730858,0.784686
0.791843,0.538059,0.730785,0.784607
0.791764,0.538022,0.730712,0.784529
0.791684,0.537986,0.730639,0.78445
0.791605,0.537949,0.730566,0.784372
0.791526,0.537912,0.730493,0.784293
0.791447,0.537876,0.730419,0.784215
0.791368,0.537839,0.730346,0.784137
0.791289,0.537803,0.730273,0.784058
0.791209,0.537766,0.7302,0.78398
0.79113,0.537729,0.730127,0.783901
0.791051,0.537693,0.730054,0.783823
0.790972,0.537656,0.729981,0.783745
0.790893,0.53762,0.729908,0.783666
0.790814,0.537583,0.729835,0.783588
0.790735,0.537547,0.729762,0.783509
0.790656,0.53751,0.729689,0.783431
0.790577,0.537474,0.729616,0.783353
0.790498,0.537437,0.729543,0.783274
0.790419,0.5374,0.729471,0.783196
0.79034,0.537364,0.729398,0.783118
0.790261,0.537327,0.729325,0.783039
0.790182,0.537291,0.729252,0.782961
0.790102,0.537254,0.729179,0.782883
0.790023,0.537218,0.729106,0.782805
0.789944,0.537181,0.729033,0.782726
0.789865,0.537145,0.72896,0.782648
0.789786,0.537108,0.728887,0.78257
0.789708,0.537072,0.728814,0.782492
0.789629,0.537035,0.728741,0.782413
0.78955,0.536999,0.728669,0.782335
0.789471,0.536962,0.728596,0.782257
0.789392,0.536926,0.728523,0.782179
0.789313,0.536889,0.72845,0.7821
0.789234,0.536852,0.728377,0.782022
0.789155,0.536816,0.728304,0.781944
0.789076,0.536779,0.728231,0.781866
0.788997,0.536743,0.728159,0.781788
0.788918,0.536706,0.728086,0.781709
0.788839,0.53667,0.728013,0.781631
0.78876,0.536633,0.72794,0.781553
0.788682,0.536597,0.727867,0.781475
0.788603,0.53656,0.727795,0.781397
0.788524,0.536524,0.727722,0.781319
0.788445,0.536487,0.727649,0.78124
0.788366,0.536451,0.727576,0.781162
0.788287,0.536415,0.727504,0.781084
0.788208,0.536378,0.727431,0.781006
0.78813,0.536342,0.727358,0.780928
0.788051,0.536305,0.727285,0.78085
0.787972,0.536269,0.727213,0.780772
0.787893,0.536232,0.72714,0.780694
0.787814,0.536196,0.727067,0.780616
0.787736,0.536159,0.726994,0.780538
0.787657,0.536123,0.726922,0.78046
0.787578,0.536086,0.726849,0.780382
0.787499,0.53605,0.726776,0.780303
0.787421,0.536013,0.726704,0.780225
0.787342,0.535977,0.726631,0.780147
0.787263,0.53594,0.726558,0.780069
0.787184,0.535904,0.726486,0.779991
0.787106,0.535868,0.726413,0.779913
0.787027,0.535831,0.72634,0.779835
0.786948,0.535795,0.726268,0.779757
0.78687,0.535758,0.726195,0.779679
0.786791,0.535722,0.726122,0.779601
0.786712,0.535685,0.72605,0.779524
0.786634,0.535649,0.725977,0.779446
0.786555,0.535613,0.725905,0.779368
0.786476,0.535576,0.725832,0.77929
0.786398,0.53554,0.72576,0.779212
0.786319,0.535503,0.725687,0.779134
0.78624,0.535467,0.725614,0.779056
0.786162,0.53543,0.725542,0.778978
0.786083,0.535394,0.725469,0.7789
0.786004,0.535358,0.725397,0.778822
0.785926,0.535321,0.725324,0.778744
0.785847,0.535285,0.725252,0.778666
0.785769,0.535248,0.725179,0.778589
0.78569,0.535212,0.725107,0.778511
0.785611,0.535176,0.725034,0.778433
0.785533,0.535139,0.724962,0.778355
0.785454,0.535103,0.724889,0.778277
0.785376,0.535066,0.724817,0.778199
0.785297,0.53503,0.724744,0.778122
0.785219,0.534994,0.724672,0.778044
0.78514,0.534957,0.724599,0.777966
0.785062,0.534921,0.724527,0.777888
0.784983,0.534884,0.724454,0.77781
0.784905,0.534848,0.724382,0.777733
0.784826,0.534812,0.724309,0.777655
0.784748,0.534775,0.724237,0.777577
0.784669,0.534739,0.724165,0.777499
0.784591,0.534703,0.724092,0.777422
0.784512,0.534666,0.72402,0.777344
0.784434,0.53463,0.723947,0.777266
0.784355,0.534594,0.723875,0.777188
0.784277,0.534557,0.723803,0.777111
0.784199,0.534521,0.72373,0.777033
0.78412,0.534484,0.723658,0.776955
0.784042,0.534448,0.723585,0.776878
0.783963,0.534412,0.723513,0.7768
0.783885,0.534375,0.723441,0.776722
0.783807,0.534339,0.723368,0.776644
0.783728,0.534303,0.723296,0.776567
0.78365,0.534266,0.723224,0.776489
0.783571,0.53423,0.723151,0.776412
0.783493,0.534194,0.723079,0.776334
0.783415,0.534157,0.723007,0.776256
0.783336,0.534121,0.722934,0.776179
0.783258,0.534085,0.722862,0.776101
0.78318,0.534048,0.72279,0.776023
0.783101,0.534012,0.722718,0.775946
0.783023,0.533976,0.722645,0.775868
0.782945,0.53394,0.722573,0.775791
0.782867,0.533903,0.722501,0.775713
0.782788,0.533867,0.722429,0.775635
0.78271,0.533831,0.722356,0.775558
0.782632,0.533794,0.722284,0.77548
0.782553,0.533758,0.722212,0.775403
0.782475,0.533722,0.72214,0.775325
0.782397,0.533685,0.722067,0.775248
0.782319,0.533649,0.721995,0.77517
0.78224,0.533613,0.721923,0.775093
0.782162,0.533577,0.721851,0.775015
0.782084,0.53354,0.721779,0.774938
0.782006,0.533504,0.721706,0.77486
0.781928,0.533468,0.721634,0.774783
0.781849,0.533431,0.721562,0.774705
0.781771,0.533395,0.72149,0.774628
0.781693,0.533359,0.721418,0.77455
0.781615,0.533323,0.721346,0.774473
0.781537,0.533286,0.721273,0.774395
0.781459,0.53325,0.721201,0.774318
0.78138,0.533214,0.721129,0.77424
0.781302,0.533177,0.721057,0.774163
0.781224,0.533141,0.720985,0.774086
0.781146,0.533105,0.720913,0.774008
0.781068,0.533069,0.720841,0.773931
0.78099,0.533032,0.720769,0.773853
0.780912,0.532996,0.720697,0.773776
0.780834,0.53296,0.720625,0.773699
0.780756,0.532924,0.720553,0.773621
0.780677,0.532887,0.72048,0.773544
0.780599,0.532851,0.720408,0.773467
0.780521,0.532815,0.720336,0.773389
0.780443,0.532779,0.720264,0.773312
0.780365,0.532743,0.720192,0.773235
0.780287,0.532706,0.72012,0.773157
0.780209,0.53267,0.720048,0.77308
0.780131,0.532634,0.719976,0.773003
0.780053,0.532598,0.719904,0.772925
0.779975,0.532561,0.719832,0.772848
0.779897,0.532525,0.71976,0.772771
0.779819,0.532489,0.719688,0.772693
0.779741,0.532453,0.719616,0.772616
0.779663,0.532417,0.719544,0.772539
0.779585,0.53238,0.719472,0.772462
0.779507,0.532344,0.719401,0.772384
0.779429,0.532308,0.719329,0.772307
0.779351,0.532272,0.719257,0.77223
0.779273,0.532236,0.719185,0.772153
0.779195,0.532199,0.719113,0.772076
0.779118,0.532163,0.719041,0.771998
0.77904,0.532127,0.718969,0.771921
0.778962,0.532091,0.718897,0.771844
0.778884,0.532055,0.718825,0.771767
0.778806,0.532018,0.718753,0.77169
0.778728,0.531982,0.718681,0.771612
0.77865,0.531946,0.71861,0.771535
0.778572,0.53191,0.718538,0.771458
0.778495,0.531874,0.718466,0.771381
0.778417,0.531838,0.718394,0.771304
0.778339,0.531801,0.718322,0.771227
0.778261,0.531765,0.71825,0.77115
0.778183,0.531729,0.718179,0.771072
0.778105,0.531693,0.718107,0.770995
0.778028,0.531657,0.718035,0.770918
0.77795,0.531621,0.717963,0.770841
0.777872,0.531584,0.717891,0.770764
0.777794,0.531548,0.71782,0.770687
0.777716,0.531512,0.717748,0.77061
0.777639,0.531476,0.717676,0.770533
0.777561,0.53144,0.717604,0.770456
0.777483,0.531404,0.717532,0.770379
0.777405,0.531367,0.717461,0.770302
0.777328,0.531331,0.717389,0.770225
0.77725,0.531295,0.717317,0.770148
0.777172,0.531259,0.717245,0.770071
0.777094,0.531223,0.717174,0.769994
0.777017,0.531187,0.717102,0.769917
0.776939,0.531151,0.71703,0.76984
0.776861,0.531115,0.716959,0.769763
0.776784,0.531078,0.716887,0.769686
0.776706,0.531042,0.716815,0.769609
0.776628,0.531006,0.716744,0.769532
0.776551,0.53097,0.716672,0.769455
0.776473,0.530934,0.7166,0.769378
0.776395,0.530898,0.716529,0.769301
0.776318,0.530862,0.716457,0.769224
0.77624,0.530826,0.716385,0.769147
0.776162,0.53079,0.716314,0.76907
0.776085,0.530754,0.716242,0.768993
0.776007,0.530717,0.71617,0.768916
0.77593,0.530681,0.716099,0.768839
0.775852,0.530645,0.716027,0.768763
0.775774,0.530609,0.715956,0.768686
0.775697,0.530573,0.715884,0.768609
0.775619,0.530537,0.715812,0.768532
0.775542,0.530501,0.715741,0.768455
0.775464,0.530465,0.715669,0.768378
0.775387,0.530429,0.715598,0.768301
0.775309,0.530393,0.715526,0.768225
0.775232,0.530357,0.715454,0.768148
0.775154,0.530321,0.715383,0.768071
0.775076,0.530284,0.715311,0.767994
0.774999,0.530248,0.71524,0.767917
0.774921,0.530212,0.715168,0.767841
0.774844,0.530176,0.715097,0.767764
0.774766,0.53014,0.715025,0.767687
0.774689,0.530104,0.714954,0.76761
0.774612,0.530068,0.714882,0.767533
0.774534,0.530032,0.714811,0.767457
0.774457,0.529996,0.714739,0.76738
0.774379,0.52996,0.714668,0.767303
0.774302,0.529924,0.714596,0.767227
0.774224,0.529888,0.714525,0.76715
0.774147,0.529852,0.714454,0.767073
0.774069,0.529816,0.714382,0.766996
0.773992,0.52978,0.714311,0.76692
0.773915,0.529744,0.714239,0.766843
0.773837,0.529708,0.714168,0.766766
0.77376,0.529672,0.714096,0.76669
0.773683,0.529636,0.714025,0.766613
0.773605,0.5296,0.713954,0.766536
0.773528,0.529564,0.713882,0.76646
0.77345,0.529528,0.713811,0.766383
0.773373,0.529492,0.713739,0.766306
0.773296,0.529456,0.713668,0.76623
0.773218,0.52942,0.713597,0.766153
0.773141,0.529384,0.713525,0.766076
0.773064,0.529348,0.713454,0.766
0.772986,0.529312,0.713383,0.765923
0.772909,0.529276,0.713311,0.765847
0.772832,0.52924,0.71324,0.76577
0.772755,0.529204,0.713169,0.765694
0.772677,0.529168,0.713097,0.765617
0.7726,0.529132,0.713026,0.76554
0.772523,0.529096,0.712955,0.765464
0.772446,0.52906,0.712883,0.765387
0.772368,0.529024,0.712812,0.765311
0.772291,0.528988,0.712741,0.765234
0.772214,0.528952,0.71267,0.765158
0.772137,0.528916,0.712598,0.765081
0.772059,0.52888,0.712527,0.765005
0.771982,0.528844,0.712456,0.764928
0.771905,0.528808,0.712384,0.764852
0.771828,0.528772,0.712313,0.764775
0.771751,0.528736,0.712242,0.764699
0.771673,0.5287,0.712171,0.764622
0.771596,0.528664,0.7121,0.764546
0.771519,0.528628,0.712028,0.764469
0.771442,0.528592,0.711957,0.764393
0.771365,0.528556,0.711886,0.764316
0.771288,0.52852,0.711815,0.76424
0.771211,0.528484,0.711744,0.764164
0.771133,0.528448,0.711672,0.764087
0.771056,0.528412,0.711601,0.764011
0.770979,0.528376,0.71153,0.763934
0.770902,0.528341,0.711459,0.763858
0.770825,0.528305,0.711388,0.763782
0.770748,0.528269,0.711317,0.763705
0.770671,0.528233,0.711246,0.763629
0.770594,0.528197,0.711174,0.763552
0.770517,0.528161,0.711103,0.763476
0.77044,0.528125,0.711032,0.7634
0.770363,0.528089,0.710961,0.763323
0.770286,0.528053,0.71089,0.763247
0.770209,0.528017,0.710819,0.763171
0.770132,0.527981,0.710748,0.763094
0.770055,0.527945,0.710677,0.763018
0.769978,0.52791,0.710606,0.762942
0.769901,0.527874,0.710535,0.762866
0.769824,0.527838,0.710464,0.762789
0.769747,0.527802,0.710392,0.762713
0.76967,0.527766,0.731631,0.762637
0.769208,0.52773,0.731558,0.76256
0.768746,0.527694,0.731485,0.762484
0.768285,0.527658,0.731412,0.762408
0.767824,0.527622,0.731338,0.762332
0.767364,0.527587,0.731265,0.762255
0.766903,0.527551,0.731192,0.762179
0.766443,0.527515,0.731119,0.762103
0.765983,0.527479,0.731046,0.762027
0.765524,0.527443,0.730973,0.761951
0.765064,0.527407,0.7309,0.761874
0.764605,0.527371,0.730827,0.761798
0.764147,0.527335,0.730754,0.761722
0.763688,0.5273,0.730681,0.761646
0.76323,0.527264,0.730607,0.76157
0.762772,0.527228,0.730534,0.761494
0.762315,0.527192,0.730461,0.761417
0.761857,0.527156,0.730388,0.761341
0.7614,0.52712,0.730315,0.761265
0.760943,0.527084,0.730242,0.761189
0.760487,0.527049,0.730169,0.761113
0.760031,0.527013,0.730096,0.761037
0.759955,0.526977,0.730023,0.760961
0.759879,0.526941,0.72995,0.760885
0.759803,0.526905,0.729877,0.760808
0.759727,0.526869,0.729804,0.760732
0.759651,0.526834,0.729731,0.760656
0.759575,0.526798,0.729658,0.76058
0.759499,0.526762,0.729585,0.760504
0.759423,0.526726,0.729512,0.760428
0.759347,0.52669,0.729439,0.760352
0.759271,0.526654,0.729366,0.760276
0.759195,0.526619,0.729294,0.7602
0.759119,0.526583,0.729221,0.760124
0.759043,0.526547,0.729148,0.760048
0.758967,0.526511,0.729075,0.759972
0.758891,0.526475,0.729002,0.759896
0.758815,0.52644,0.728929,0.75982
0.75874,0.526404,0.728856,0.759744
0.758664,0.526368,0.728783,0.759668
0.758588,0.526332,0.72871,0.759592
0.758512,0.526296,0.728637,0.759516
0.758436,0.526261,0.728565,0.75944
0.75836,0.526225,0.728492,0.759364
0.758284,0.526189,0.728419,0.759288
0.758209,0.526153,0.728346,0.759212
0.758133,0.526117,0.728273,0.759136
0.758057,0.526082,0.7282,0.759061
0.757981,0.526046,0.728128,0.758985
0.757905,0.52601,0.728055,0.758909
0.75783,0.525974,0.727982,0.758833
0.757754,0.525939,0.727909,0.758757
0.757678,0.525903,0.727836,0.758681
0.757602,0.525867,0.727764,0.758605
0.757526,0.525831,0.727691,0.758529
0.757451,0.525796,0.727618,0.758454
0.757375,0.52576,0.727545,0.758378
0.757299,0.525724,0.727472,0.758302
0.757223,0.525688,0.7274,0.758226
0.757148,0.525652,0.727327,0.75815
0.757072,0.525617,0.727254,0.758074
0.756996,0.525581,0.727182,0.757999
0.756921,0.525545,0.727109,0.757923
0.756845,0.52551,0.727036,0.757847
