energy,productivity,fun,hunger
0.819092,0.491031,0.893193,0.71091
0.81901,0.490995,0.919896,0.710839
0.818518,0.490959,0.919804,0.710768
0.818027,0.490923,0.919712,0.710697
0.817537,0.490887,0.91962,0.710626
0.817046,0.490851,0.919528,0.710555
0.816556,0.490814,0.919437,0.710484
0.816066,0.490778,0.919345,0.710413
0.815576,0.490742,0.919253,0.710342
0.815087,0.490706,0.919161,0.710271
0.814598,0.49067,0.919069,0.7102
0.814109,0.490634,0.918977,0.710129
0.813621,0.490598,0.918885,0.710058
0.813133,0.490562,0.918793,0.709987
0.812645,0.490525,0.918701,0.709916
0.812157,0.490489,0.918609,0.709845
0.81167,0.490453,0.918518,0.709774
0.811183,0.490417,0.918426,0.709703
0.810697,0.490381,0.918334,0.709632
0.81021,0.490345,0.918242,0.709561
0.809724,0.490309,0.91815,0.70949
0.809238,0.490273,0.918058,0.709419
0.808753,0.490236,0.917967,0.709348
0.808268,0.4902,0.917875,0.709277
0.807783,0.490164,0.917783,0.709206
0.807298,0.490128,0.917691,0.709135
0.806814,0.490092,0.917599,0.709064
0.80633,0.490056,0.917508,0.708993
0.805846,0.49002,0.917416,0.708922
0.805362,0.489984,0.917324,0.708852
0.804879,0.489948,0.917232,0.708781
0.804396,0.489912,0.917141,0.70871
0.803914,0.489876,0.917049,0.708639
0.803432,0.489839,0.916957,0.708568
0.802949,0.489803,0.916866,0.708497
0.802468,0.489767,0.916774,0.708426
0.801986,0.489731,0.916682,0.708356
0.801505,0.489695,0.916591,0.708285
0.801024,0.489659,0.916499,0.708214
0.800544,0.489623,0.916407,0.708143
0.800063,0.489587,0.916316,0.708072
0.799583,0.489551,0.916224,0.708001
0.799104,0.489515,0.916132,0.707931
0.798624,0.489479,0.916041,0.70786
0.798145,0.489443,0.915949,0.707789
0.797666,0.489407,0.915858,0.707718
0.797188,0.489371,0.915766,0.707648
0.79671,0.489335,0.915674,0.707577
0.796232,0.489299,0.915583,0.707506
0.795754,0.489263,0.915491,0.707435
0.795276,0.489227,0.9154,0.707365
0.794799,0.48919,0.915308,0.707294
0.794322,0.489154,0.915217,0.707223
0.793846,0.489118,0.915125,0.707152
0.79337,0.489082,0.915034,0.707082
0.792894,0.489046,0.914942,0.707011
0.792418,0.48901,0.914851,0.70694
0.791943,0.488974,0.914759,0.706869
0.791467,0.488938,0.914668,0.706799
0.790993,0.488902,0.914576,0.706728
0.790518,0.488866,0.914485,0.706657
0.790044,0.48883,0.914393,0.706587
0.78957,0.488794,0.914302,0.706516
0.789096,0.488758,0.91421,0.706445
0.788623,0.488722,0.914119,0.706375
0.788149,0.488686,0.914028,0.706304
0.787677,0.48865,0.913936,0.706234
0.787204,0.488614,0.913845,0.706163
0.786732,0.488578,0.913753,0.706092
0.78626,0.488542,0.913662,0.706022
0.785788,0.488506,0.913571,0.705951
0.785317,0.48847,0.913479,0.705881
0.784845,0.488434,0.913388,0.70581
0.784767,0.488399,0.913297,0.705739
0.784689,0.488363,0.940601,0.705669
0.784218,0.488327,0.940507,0.705598
0.783747,0.488291,0.940413,0.705528
0.783277,0.488255,0.940319,0.705457
0.782807,0.488219,0.940225,0.705387
0.782337,0.488183,0.940131,0.705316
0.781868,0.488147,0.940037,0.705245
0.781399,0.488111,0.939943,0.705175
0.78093,0.488075,0.939849,0.705104
0.780462,0.488039,0.939755,0.705034
0.779993,0.488003,0.939661,0.704963
0.779526,0.487967,0.939567,0.704893
0.779058,0.487931,0.939473,0.704822
0.77859,0.487895,0.939379,0.704752
0.778123,0.487859,0.939285,0.704681
0.777657,0.487823,0.939192,0.704611
0.77719,0.487787,0.939098,0.704541
0.776724,0.487751,0.939004,0.70447
0.776258,0.487716,0.93891,0.7044
0.775792,0.48768,0.938816,0.704329
0.775327,0.487644,0.938722,0.704259
0.774861,0.487608,0.938628,0.704188
0.774396,0.487572,0.938534,0.704118
0.773932,0.487536,0.93844,0.704048
0.773468,0.4875,0.938347,0.703977
0.773004,0.487464,0.938253,0.703907
0.77254,0.487428,0.938159,0.703836
0.772076,0.487392,0.938065,0.703766
0.771613,0.487356,0.937971,0.703696
0.77115,0.487321,0.937878,0.703625
0.770687,0.487285,0.937784,0.703555
0.770225,0.487249,0.93769,0.703484
0.769763,0.487213,0.937596,0.703414
0.769301,0.487177,0.937502,0.703344
0.76884,0.487141,0.937409,0.703273
0.768378,0.487105,0.937315,0.703203
0.767917,0.487069,0.937221,0.703133
0.767457,0.487034,0.937127,0.703062
0.766996,0.486998,0.937034,0.702992
0.766536,0.486962,0.93694,0.702922
0.766076,0.486926,0.936846,0.702852
0.765617,0.48689,0.936753,0.702781
0.76554,0.486854,0.936659,0.702711
0.765463,0.486818,0.964662,0.702641
0.765004,0.486783,0.964566,0.702571
0.764545,0.486747,0.964469,0.7025
0.764087,0.486711,0.964373,0.70243
0.763628,0.486675,0.964276,0.70236
0.76317,0.486639,0.96418,0.70229
0.762712,0.486603,0.964084,0.702219
0.762255,0.486567,0.963987,0.702149
0.761797,0.486532,0.963891,0.702079
0.76134,0.486496,0.963794,0.702009
0.760883,0.48646,0.963698,0.701938
0.760427,0.486424,0.963602,0.701868
0.759971,0.486388,0.963505,0.701798
0.759515,0.486352,0.963409,0.701728
0.759059,0.486317,0.963313,0.701658
0.758604,0.486281,0.963216,0.701588
0.758149,0.486245,0.96312,0.701517
0.757694,0.486209,0.963024,0.701447
0.757239,0.486173,0.962927,0.701377
0.756785,0.486138,0.962831,0.701307
0.756331,0.486102,0.962735,0.701237
0.755877,0.486066,0.962639,0.701167
0.755424,0.48603,0.962542,0.701097
0.75497,0.485994,0.962446,0.701026
0.754517,0.485959,0.96235,0.700956
0.754065,0.485923,0.962254,0.700886
0.753612,0.485887,0.962157,0.700816
0.75316,0.485851,0.962061,0.700746
0.752708,0.485815,0.961965,0.700676
0.752257,0.48578,0.961869,0.700606
0.751805,0.485744,0.961772,0.700536
0.751354,0.485708,0.961676,0.700466
0.750904,0.485672,0.96158,0.700396
0.750453,0.485637,0.961484,0.700326
0.750003,0.485601,0.961388,0.700256
0.749553,0.485565,0.961292,0.700186
0.749103,0.485529,0.961196,0.700116
0.748654,0.485494,0.961099,0.700046
0.748205,0.485458,0.961003,0.699976
0.747756,0.485422,0.960907,0.699906
0.747307,0.485386,0.960811,0.699836
0.746859,0.485351,0.960715,0.699766
0.746411,0.485315,0.960619,0.699696
0.745963,0.485279,0.960523,0.699626
0.745515,0.485243,0.960427,0.699556
0.745068,0.485208,0.960331,0.699486
0.744621,0.485172,0.960235,0.699416
0.744174,0.485136,0.960139,0.699346
0.743728,0.4851,0.960043,0.699276
0.743282,0.485065,0.959947,0.699206
0.742836,0.485029,0.959851,0.699136
0.74239,0.484993,0.959755,0.699066
0.742316,0.484958,0.959659,0.698996
0.742242,0.484922,0.98835,0.698926
0.741796,0.484886,0.988251,0.698857
0.741351,0.48485,0.988152,0.698787
0.740907,0.484815,0.988053,0.698717
0.740462,0.484779,0.987954,0.698647
0.740018,0.484743,0.987856,0.698577
0.739574,0.484708,0.987757,0.698507
0.73913,0.484672,0.987658,0.698437
0.738687,0.484636,0.987559,0.698367
0.738243,0.4846,0.987461,0.698298
0.737801,0.484565,0.987362,0.698228
0.737358,0.484529,0.987263,0.698158
0.736916,0.484493,0.987164,0.698088
0.736473,0.484458,0.987066,0.698018
0.736032,0.484422,0.986967,0.697949
0.735958,0.484386,0.986868,0.697879
0.735884,0.484351,1,0.697809
0.735443,0.484315,0.9999,0.697739
0.735002,0.484279,0.9998,0.697669
0.734561,0.484244,0.9997,0.6976
0.73412,0.484208,0.9996,0.69753
0.73368,0.484172,0.9995,0.69746
0.733239,0.484137,0.9994,0.69739
0.7328,0.484101,0.9993,0.697321
0.73236,0.484065,0.9992,0.697251
0.73192,0.48403,0.9991,0.697181
0.731481,0.483994,0.999,0.697111
0.731043,0.483958,0.998901,0.697042
0.730604,0.483923,0.998801,0.696972
0.730166,0.483887,0.998701,0.696902
0.729728,0.483852,0.998601,0.696833
0.72929,0.483816,0.998501,0.696763
0.728852,0.48378,0.998401,0.696693
0.728415,0.483745,0.998301,0.696624
0.727978,0.483709,0.998202,0.696554
0.727541,0.483673,0.998102,0.696484
0.727105,0.483638,0.998002,0.696415
0.726668,0.483602,0.997902,0.696345
0.726232,0.483567,0.997802,0.696275
0.725797,0.483531,0.997703,0.696206
0.725361,0.483495,0.997603,0.696136
0.724926,0.48346,0.997503,0.696067
0.724491,0.483424,0.997403,0.695997
0.724057,0.483389,0.997304,0.695927
0.723622,0.483353,0.997204,0.695858
0.72355,0.483317,0.997104,0.695788
0.723477,0.483282,1,0.695719
0.723043,0.483246,0.9999,0.695649
0.72261,0.483211,0.9998,0.695579
0.722176,0.483175,0.9997,0.69551
0.721743,0.483139,0.9996,0.69544
0.72131,0.483104,0.9995,0.695371
0.720877,0.483068,0.9994,0.695301
0.720445,0.483033,0.9993,0.695232
0.720012,0.482997,0.9992,0.695162
0.71958,0.482961,0.9991,0.695093
0.719149,0.482926,0.999,0.695023
0.718717,0.48289,0.998901,0.694954
0.718286,0.482855,0.998801,0.694884
0.717855,0.482819,0.998701,0.694815
0.717424,0.482784,0.998601,0.694745
0.716994,0.482748,0.998501,0.694676
0.716564,0.482713,0.998401,0.694606
0.716134,0.482677,0.998301,0.694537
0.715704,0.482641,0.998202,0.694467
0.715275,0.482606,0.998102,0.694398
0.714846,0.48257,0.998002,0.694328
0.714417,0.482535,0.997902,0.694259
0.713988,0.482499,0.997802,0.69419
0.71356,0.482464,0.997703,0.69412
0.713489,0.482428,0.997603,0.694051
0.713417,0.482393,1,0.693981
0.712989,0.482357,0.9999,0.693912
0.712561,0.482322,0.9998,0.693843
0.712134,0.482286,0.9997,0.693773
0.711707,0.482251,0.9996,0.693704
0.71128,0.482215,0.9995,0.693634
0.710853,0.48218,0.9994,0.693565
0.710426,0.482144,0.9993,0.693496
0.71,0.482109,0.9992,0.693426
0.709574,0.482073,0.9991,0.693357
0.709149,0.482038,0.999,0.693288
0.708723,0.482002,0.998901,0.693218
0.708298,0.481967,0.998801,0.693149
0.707873,0.481931,0.998701,0.69308
0.707448,0.481896,0.998601,0.69301
0.707024,0.48186,0.998501,0.692941
0.7066,0.481825,0.998401,0.692872
0.706176,0.481789,0.998301,0.692803
0.705752,0.481754,0.998202,0.692733
0.705329,0.481718,0.998102,0.692664
0.704906,0.481683,0.998002,0.692595
0.704483,0.481647,0.997902,0.692525
0.70406,0.481612,0.997802,0.692456
0.703638,0.481576,0.997703,0.692387
0.703215,0.481541,0.997603,0.692318
0.703145,0.481505,0.997503,0.692249
0.703075,0.48147,1,0.692179
0.702653,0.481434,0.9999,0.69211
0.702231,0.481399,0.9998,0.692041
0.70181,0.481363,0.9997,0.691972
0.701389,0.481328,0.9996,0.691902
0.700968,0.481293,0.9995,0.691833
0.700548,0.481257,0.9994,0.691764
0.700127,0.481222,0.9993,0.691695
0.700057,0.481186,0.9992,0.691626
0.699987,0.481151,1,0.691557
0.699567,0.481115,0.9999,0.691487
0.699148,0.48108,0.9998,0.691418
0.698728,0.481045,0.9997,0.691349
0.698309,0.481009,0.9996,0.69128
0.69789,0.480974,0.9995,0.691211
0.697471,0.480938,0.9994,0.691142
0.697053,0.480903,0.9993,0.691073
0.696635,0.480867,0.9992,0.691004
0.696217,0.480832,0.9991,0.690934
0.695799,0.480797,0.999,0.690865
0.695382,0.480761,0.998901,0.690796
0.694965,0.480726,0.998801,0.690727
0.694548,0.48069,0.998701,0.690658
0.694131,0.480655,0.998601,0.690589
0.693714,0.48062,0.998501,0.69052
0.693298,0.480584,0.998401,0.690451
0.692882,0.480549,0.998301,0.690382
0.692467,0.480513,0.998202,0.690313
0.692051,0.480478,0.998102,0.690244
0.691636,0.480443,0.998002,0.690175
0.691221,0.480407,0.997902,0.690106
0.690806,0.480372,0.997802,0.690037
0.690392,0.480336,0.997703,0.689968
0.689978,0.480301,0.997603,0.689899
0.689564,0.480266,0.997503,0.68983
0.68915,0.48023,0.997403,0.689761
0.688737,0.480195,0.997304,0.689692
0.688323,0.48016,0.997204,0.689623
0.68791,0.480124,0.997104,0.689554
0.687498,0.480089,0.997004,0.689485
0.687085,0.480054,0.996905,0.689416
0.686673,0.480018,0.996805,0.689347
0.686261,0.479983,0.996705,0.689278
0.685849,0.479947,0.996606,0.689209
0.685438,0.479912,0.996506,0.68914
0.685027,0.479877,0.996406,0.689071
0.684616,0.479841,0.996307,0.689002
0.684547,0.479806,0.996207,0.688934
0.684479,0.479771,1,0.688865
0.684068,0.479735,0.9999,0.688796
0.683658,0.4797,0.9998,0.688727
0.683247,0.479665,0.9997,0.688658
0.682838,0.479629,0.9996,0.688589
0.682428,0.479594,0.9995,0.68852
0.682018,0.479559,0.9994,0.688451
0.681609,0.479523,0.9993,0.688383
0.6812,0.479488,0.9992,0.688314
0.680792,0.479453,0.9991,0.688245
0.680383,0.479418,0.999,0.688176
0.679975,0.479382,0.998901,0.688107
0.679567,0.479347,0.998801,0.688038
0.679159,0.479312,0.998701,0.68797
0.678752,0.479276,0.998601,0.687901
0.678345,0.479241,0.998501,0.687832
0.677938,0.479206,0.998401,0.687763
0.677531,0.47917,0.998301,0.687694
0.677125,0.479135,0.998202,0.687626
0.676718,0.4791,0.998102,0.687557
0.676312,0.479065,0.998002,0.687488
0.675907,0.479029,0.997902,0.687419
0.675501,0.478994,0.997802,0.687351
0.675096,0.478959,0.997703,0.687282
0.674691,0.478923,0.997603,0.687213
0.674286,0.478888,0.997503,0.687145
0.673881,0.478853,0.997403,0.687076
0.673477,0.478818,0.997304,0.687007
0.673073,0.478782,0.997204,0.686938
0.672669,0.478747,0.997104,0.68687
0.672266,0.478712,0.997004,0.686801
0.671862,0.478677,0.996905,0.686732
0.671459,0.478641,0.996805,0.686664
0.671056,0.478606,0.996705,0.686595
0.670654,0.478571,0.996606,0.686526
0.670587,0.478536,0.996506,0.686458
0.67052,0.4785,1,0.686389
0.670117,0.478465,0.9999,0.68632
0.669715,0.47843,0.9998,0.686252
0.669314,0.478395,0.9997,0.686183
0.668912,0.478359,0.9996,0.686115
0.668511,0.478324,0.9995,0.686046
0.66811,0.478289,0.9994,0.685977
0.667709,0.478254,0.9993,0.685909
0.667308,0.478219,0.9992,0.68584
0.666908,0.478183,0.9991,0.685772
0.666508,0.478148,0.999,0.685703
0.666108,0.478113,0.998901,0.685634
0.665708,0.478078,0.998801,0.685566
0.665309,0.478042,0.998701,0.685497
0.66491,0.478007,0.998601,0.685429
0.664511,0.477972,0.998501,0.68536
0.664112,0.477937,0.998401,0.685292
0.664046,0.477902,0.998301,0.685223
0.663979,0.477866,1,0.685155
0.663581,0.477831,0.9999,0.685086
0.663183,0.477796,0.9998,0.685018
0.662785,0.477761,0.9997,0.684949
0.662387,0.477726,0.9996,0.684881
0.66199,0.477691,0.9995,0.684812
0.661593,0.477655,0.9994,0.684744
0.661196,0.47762,0.9993,0.684675
0.660799,0.477585,0.9992,0.684607
0.660403,0.47755,0.9991,0.684538
0.660007,0.477515,0.999,0.68447
0.659611,0.477479,0.998901,0.684401
0.659215,0.477444,0.998801,0.684333
0.658819,0.477409,0.998701,0.684264
0.658424,0.477374,0.998601,0.684196
0.658029,0.477339,0.998501,0.684128
0.657634,0.477304,0.998401,0.684059
0.657568,0.477269,0.998301,0.683991
0.657503,0.477233,1,0.683922
0.657108,0.477198,0.9999,0.683854
0.656714,0.477163,0.9998,0.683786
0.65632,0.477128,0.9997,0.683717
0.655926,0.477093,0.9996,0.683649
0.655533,0.477058,0.9995,0.68358
0.655139,0.477023,0.9994,0.683512
0.654746,0.476987,0.9993,0.683444
0.654354,0.476952,0.9992,0.683375
0.653961,0.476917,0.9991,0.683307
0.653569,0.476882,0.999,0.683239
0.653177,0.476847,0.998901,0.68317
0.652785,0.476812,0.998801,0.683102
0.652393,0.476777,0.998701,0.683034
0.652002,0.476742,0.998601,0.682965
0.65161,0.476706,0.998501,0.682897
0.65122,0.476671,0.998401,0.682829
0.650829,0.476636,0.998301,0.682761
0.650438,0.476601,0.998202,0.682692
0.650048,0.476566,0.998102,0.682624
0.649658,0.476531,0.998002,0.682556
0.649268,0.476496,0.997902,0.682488
0.648879,0.476461,0.997802,0.682419
0.64849,0.476426,0.997703,0.682351
0.648101,0.476391,0.997603,0.682283
0.647712,0.476355,0.997503,0.682215
0.647323,0.47632,0.997403,0.682146
0.646935,0.476285,0.997304,0.682078
0.646547,0.47625,0.997204,0.68201
0.646159,0.476215,0.997104,0.681942
0.645771,0.47618,0.997004,0.681874
0.645384,0.476145,0.996905,0.681805
0.644996,0.47611,0.996805,0.681737
0.644609,0.476075,0.996705,0.681669
0.644223,0.47604,0.996606,0.681601
0.643836,0.476005,0.996506,0.681533
0.64345,0.47597,0.996406,0.681465
0.643064,0.475935,0.996307,0.681396
0.642678,0.4759,0.996207,0.681328
0.642293,0.475865,0.996107,0.68126
0.641907,0.47583,0.996008,0.681192
0.641522,0.475794,0.995908,0.681124
0.641137,0.475759,0.995809,0.681056
0.640753,0.475724,0.995709,0.680988
0.640368,0.475689,0.995609,0.68092
0.639984,0.475654,0.99551,0.680851
0.6396,0.475619,0.99541,0.680783
0.639216,0.475584,0.995311,0.680715
0.638833,0.475549,0.995211,0.680647
0.638449,0.475514,0.995112,0.680579
0.638066,0.475479,0.995012,0.680511
0.637684,0.475444,0.994913,0.680443
0.637301,0.475409,0.994813,0.680375
0.636919,0.475374,0.994714,0.680307
0.636855,0.475339,0.994614,0.680239
0.636791,0.475304,1,0.680171
0.636409,0.475269,0.9999,0.680103
0.636027,0.475234,0.9998,0.680035
0.635646,0.475199,0.9997,0.679967
0.635265,0.475164,0.9996,0.679899
0.634883,0.475129,0.9995,0.679831
0.634502,0.475094,0.9994,0.679763
0.634122,0.475059,0.9993,0.679695
0.633741,0.475024,0.9992,0.679627
0.633361,0.474989,0.9991,0.679559
0.632981,0.474954,0.999,0.679491
0.632601,0.474919,0.998901,0.679423
0.632222,0.474884,0.998801,0.679355
0.631843,0.474849,0.998701,0.679287
0.631464,0.474814,0.998601,0.679219
0.631085,0.474779,0.998501,0.679151
0.630706,0.474744,0.998401,0.679083
0.630328,0.474709,0.998301,0.679016
0.62995,0.474674,0.998202,0.678948
0.629572,0.474639,0.998102,0.67888
0.629194,0.474605,0.998002,0.678812
0.628816,0.47457,0.997902,0.678744
0.628439,0.474535,0.997802,0.678676
0.628062,0.4745,0.997703,0.678608
0.627685,0.474465,0.997603,0.67854
0.627309,0.47443,0.997503,0.678473
0.626932,0.474395,0.997403,0.678405
0.626556,0.47436,0.997304,0.678337
0.62618,0.474325,0.997204,0.678269
0.625805,0.47429,0.997104,0.678201
0.625429,0.474255,0.997004,0.678133
0.625054,0.47422,0.996905,0.678066
0.624679,0.474185,0.996805,0.677998
0.624304,0.47415,0.996705,0.67793
0.62393,0.474115,0.996606,0.677862
0.623555,0.47408,0.996506,0.677794
0.623181,0.474046,0.996406,0.677727
0.622807,0.474011,0.996307,0.677659
0.622745,0.473976,0.996207,0.677591
0.622683,0.473941,1,0.677523
0.622309,0.473906,0.9999,0.677456
0.621936,0.473871,0.9998,0.677388
0.621563,0.473836,0.9997,0.67732
0.62119,0.473801,0.9996,0.677252
0.620817,0.473766,0.9995,0.677185
0.620445,0.473731,0.9994,0.677117
0.620072,0.473697,0.9993,0.677049
0.6197,0.473662,0.9992,0.676981
0.619329,0.473627,0.9991,0.676914
0.618957,0.473592,0.999,0.676846
0.618586,0.473557,0.998901,0.676778
0.618215,0.473522,0.998801,0.676711
0.617844,0.473487,0.998701,0.676643
0.617473,0.473452,0.998601,0.676575
0.617103,0.473418,0.998501,0.676508
0.616732,0.473383,0.998401,0.67644
0.616362,0.473348,0.998301,0.676372
0.615993,0.473313,0.998202,0.676305
0.615623,0.473278,0.998102,0.676237
0.615254,0.473243,0.998002,0.67617
0.614885,0.473208,0.997902,0.676102
0.614516,0.473174,0.997802,0.676034
0.614147,0.473139,0.997703,0.675967
0.613778,0.473104,0.997603,0.675899
0.61341,0.473069,0.997503,0.675832
0.613349,0.473034,0.997403,0.675764
0.613288,0.472999,1,0.675696
0.61292,0.472964,0.9999,0.675629
0.612552,0.47293,0.9998,0.675561
0.612184,0.472895,0.9997,0.675494
0.611817,0.47286,0.9996,0.675426
0.61145,0.472825,0.9995,0.675359
0.611083,0.47279,0.9994,0.675291
0.610717,0.472756,0.9993,0.675224
0.61035,0.472721,0.9992,0.675156
0.609984,0.472686,0.9991,0.675088
0.609618,0.472651,0.999,0.675021
0.609252,0.472616,0.998901,0.674953
0.608887,0.472581,0.998801,0.674886
0.608521,0.472547,0.998701,0.674818
0.608156,0.472512,0.998601,0.674751
0.607792,0.472477,0.998501,0.674684
0.607427,0.472442,0.998401,0.674616
0.607062,0.472407,0.998301,0.674549
0.606698,0.472373,0.998202,0.674481
0.606334,0.472338,0.998102,0.674414
0.605971,0.472303,0.998002,0.674346
0.605607,0.472268,0.997902,0.674279
0.605244,0.472234,0.997802,0.674211
0.604881,0.472199,0.997703,0.674144
0.604518,0.472164,0.997603,0.674077
0.604155,0.472129,0.997503,0.674009
0.603792,0.472094,0.997403,0.673942
0.60343,0.47206,0.997304,0.673874
0.603068,0.472025,0.997204,0.673807
0.602706,0.47199,0.997104,0.67374
0.602345,0.471955,0.997004,0.673672
0.602285,0.471921,0.996905,0.673605
0.602224,0.471886,1,0.673537
0.601863,0.471851,0.9999,0.67347
0.601502,0.471816,0.9998,0.673403
0.601141,0.471782,0.9997,0.673335
0.60078,0.471747,0.9996,0.673268
0.60042,0.471712,0.9995,0.673201
0.60006,0.471677,0.9994,0.673133
0.5997,0.471643,0.9993,0.673066
0.59934,0.471608,0.9992,0.672999
0.59898,0.471573,0.9991,0.672932
0.598621,0.471538,0.999,0.672864
0.598262,0.471504,0.998901,0.672797
0.597903,0.471469,0.998801,0.67273
0.597544,0.471434,0.998701,0.672662
0.597186,0.4714,0.998601,0.672595
0.596827,0.471365,0.998501,0.672528
0.596469,0.47133,0.998401,0.672461
0.596112,0.471295,0.998301,0.672393
0.595754,0.471261,0.998202,0.672326
0.595396,0.471226,0.998102,0.672259
0.595039,0.471191,0.998002,0.672192
0.594682,0.471157,0.997902,0.672124
0.594326,0.471122,0.997802,0.672057
0.593969,0.471087,0.997703,0.67199
0.593613,0.471053,0.997603,0.671923
0.593256,0.471018,0.997503,0.671856
0.592901,0.470983,0.997403,0.671788
0.592545,0.470948,0.997304,0.671721
0.592189,0.470914,0.997204,0.671654
0.591834,0.470879,0.997104,0.671587
