energy,productivity,fun,hunger
0.624561,0.632013,0.624381,0.978339
0.624499,0.631961,0.643048,0.978241
0.624124,0.631908,0.662273,0.978144
0.62375,0.631855,0.682073,0.978046
0.623375,0.631802,0.702465,0.977948
0.623001,0.63175,0.723467,0.97785
0.622628,0.631697,0.723394,0.977752
0.622254,0.631644,0.723322,0.977655
0.621881,0.631591,0.72325,0.977557
0.621508,0.631538,0.723177,0.977459
0.621135,0.631486,0.723105,0.977361
0.620762,0.631433,0.723033,0.977264
0.62039,0.63138,0.72296,0.977166
0.620018,0.631328,0.722888,0.977068
0.619646,0.631275,0.722816,0.97697
0.619274,0.631222,0.722744,0.976873
0.619212,0.631169,0.722671,0.976775
0.61915,0.631117,0.722599,0.976677
0.619088,0.631064,0.722527,0.97658
0.619026,0.631011,0.722455,0.976482
0.618964,0.630959,0.722382,0.976384
0.618902,0.630906,0.72231,0.976287
0.61884,0.630853,0.722238,0.976189
0.618779,0.630801,0.722166,0.976091
0.618717,0.630748,0.722093,0.975994
0.618655,0.630695,0.722021,0.975896
0.618593,0.630642,0.721949,0.975799
0.618531,0.63059,0.721877,0.975701
0.618469,0.630537,0.721805,0.975604
0.618407,0.630484,0.721732,0.975506
0.618346,0.630432,0.72166,0.975408
0.618284,0.630379,0.721588,0.975311
0.618222,0.630327,0.721516,0.975213
0.61816,0.630274,0.721444,0.975116
0.618098,0.630221,0.721372,0.975018
0.618036,0.630169,0.7213,0.974921
0.617975,0.630116,0.721227,0.974823
0.617913,0.630063,0.721155,0.974726
0.617851,0.630011,0.721083,0.974628
0.617789,0.629958,0.721011,0.974531
0.617727,0.629906,0.720939,0.974433
0.617666,0.629853,0.720867,0.974336
0.617604,0.6298,0.720795,0.974239
0.617542,0.629748,0.720723,0.974141
0.61748,0.629695,0.720651,0.974044
0.617419,0.629643,0.720579,0.973946
0.617357,0.62959,0.720506,0.973849
0.617295,0.629537,0.720434,0.973752
0.617233,0.629485,0.720362,0.973654
0.617172,0.629432,0.72029,0.973557
0.61711,0.62938,0.720218,0.973459
0.617048,0.629327,0.720146,0.973362
0.616987,0.629275,0.720074,0.973265
0.616925,0.629222,0.720002,0.973167
0.616863,0.629169,0.71993,0.97307
0.616802,0.629117,0.719858,0.972973
0.61674,0.629064,0.719786,0.972876
0.616678,0.629012,0.719714,0.972778
0.616617,0.628959,0.719642,0.972681
0.616555,0.628907,0.71957,0.972584
0.616493,0.628854,0.719498,0.972486
0.616432,0.628802,0.719426,0.972389
0.61637,0.628749,0.719355,0.972292
0.616308,0.628697,0.719283,0.972195
0.616247,0.628644,0.719211,0.972098
0.616185,0.628592,0.719139,0.972
0.616123,0.628539,0.719067,0.971903
0.616062,0.628487,0.718995,0.971806
0.616,0.628434,0.718923,0.971709
0.615939,0.628382,0.718851,0.971612
0.615877,0.628329,0.718779,0.971514
0.615815,0.628277,0.718707,0.971417
0.615754,0.628224,0.718636,0.97132
0.615692,0.628172,0.718564,0.971223
0.615631,0.628119,0.718492,0.971126
0.615569,0.628067,0.71842,0.971029
0.615508,0.628014,0.718348,0.970932
0.615446,0.627962,0.718276,0.970835
0.615384,0.62791,0.718204,0.970737
0.615323,0.627857,0.718133,0.97064
0.615261,0.627805,0.718061,0.970543
0.6152,0.627752,0.717989,0.970446
0.615138,0.6277,0.717917,0.970349
0.615077,0.627647,0.717845,0.970252
0.615015,0.627595,0.717774,0.970155
0.614954,0.627543,0.717702,0.970058
0.614892,0.62749,0.71763,0.969961
0.614831,0.627438,0.717558,0.969864
0.614769,0.627385,0.717487,0.969767
0.614708,0.627333,0.717415,0.96967
0.614646,0.627281,0.717343,0.969573
0.614585,0.627228,0.717271,0.969476
0.614523,0.627176,0.7172,0.969379
0.614462,0.627123,0.717128,0.969282
0.614401,0.627071,0.717056,0.969185
0.614339,0.627019,0.716984,0.969089
0.614278,0.626966,0.716913,0.968992
0.614216,0.626914,0.716841,0.968895
0.614155,0.626862,0.716769,0.968798
0.614093,0.626809,0.716698,0.968701
0.614032,0.626757,0.716626,0.968604
0.613971,0.626705,0.716554,0.968507
0.613909,0.626652,0.716483,0.96841
0.613848,0.6266,0.716411,0.968314
0.613786,0.626548,0.716339,0.968217
0.613725,0.626495,0.716268,0.96812
0.613664,0.626443,0.716196,0.968023
0.613602,0.626391,0.716125,0.967926
0.613541,0.626338,0.716053,0.967829
0.61348,0.626286,0.715981,0.967733
0.613418,0.626234,0.71591,0.967636
0.613357,0.626181,0.715838,0.967539
0.613296,0.626129,0.715767,0.967442
0.613234,0.626077,0.715695,0.967346
0.613173,0.626025,0.715623,0.967249
0.613112,0.625972,0.715552,0.967152
0.61305,0.62592,0.71548,0.967055
0.612989,0.625868,0.715409,0.966959
0.612928,0.625815,0.715337,0.966862
0.612866,0.625763,0.715266,0.966765
0.612805,0.625711,0.715194,0.966669
0.612744,0.625659,0.715123,0.966572
0.612683,0.625606,0.715051,0.966475
0.612621,0.625554,0.71498,0.966379
0.61256,0.625502,0.714908,0.966282
0.612499,0.62545,0.714837,0.966185
0.612438,0.625397,0.714765,0.966089
0.612376,0.625345,0.714694,0.965992
0.612315,0.625293,0.714622,0.965896
0.612254,0.625241,0.714551,0.965799
0.612193,0.625189,0.714479,0.965702
0.612131,0.625136,0.714408,0.965606
0.61207,0.625084,0.714336,0.965509
0.612009,0.625032,0.714265,0.965413
0.611948,0.62498,0.714194,0.965316
0.611887,0.624928,0.714122,0.96522
0.611825,0.624875,0.714051,0.965123
0.611764,0.624823,0.713979,0.965027
0.611703,0.624771,0.713908,0.96493
0.611642,0.624719,0.713837,0.964834
0.611581,0.624667,0.713765,0.964737
0.61152,0.624614,0.713694,0.964641
0.611458,0.624562,0.713622,0.964544
0.611397,0.62451,0.713551,0.964448
0.611336,0.624458,0.71348,0.964351
0.611275,0.624406,0.713408,0.964255
0.610908,0.624354,0.713337,0.964159
0.610542,0.624302,0.713266,0.964062
0.610175,0.624249,0.713194,0.963966
0.609809,0.624197,0.713123,0.963869
0.609443,0.624145,0.713052,0.963773
0.609078,0.624093,0.71298,0.963677
0.608712,0.624041,0.712909,0.96358
0.608347,0.623989,0.712838,0.963484
0.607982,0.623937,0.712766,0.963387
0.607618,0.623885,0.712695,0.963291
0.607253,0.623832,0.712624,0.963195
0.606889,0.62378,0.712553,0.963098
0.606525,0.623728,0.712481,0.963002
0.606161,0.623676,0.71241,0.962906
0.605797,0.623624,0.712339,0.96281
0.605434,0.623572,0.712268,0.962713
0.60507,0.62352,0.712196,0.962617
0.604707,0.623468,0.712125,0.962521
0.604345,0.623416,0.712054,0.962424
0.603982,0.623364,0.711983,0.962328
0.60362,0.623312,0.711912,0.962232
0.603257,0.62326,0.71184,0.962136
0.602896,0.623208,0.711769,0.96204
0.602534,0.623156,0.711698,0.961943
0.602172,0.623104,0.711627,0.961847
0.601811,0.623051,0.711556,0.961751
0.60145,0.622999,0.711485,0.961655
0.601089,0.622947,0.711413,0.961559
0.600729,0.622895,0.711342,0.961462
0.600368,0.622843,0.711271,0.961366
0.600008,0.622791,0.7112,0.96127
0.599648,0.622739,0.711129,0.961174
0.599288,0.622687,0.711058,0.961078
0.599228,0.622635,0.710987,0.960982
0.599168,0.622583,0.710916,0.960886
0.599108,0.622531,0.710845,0.96079
0.599049,0.622479,0.710773,0.960694
0.598989,0.622427,0.710702,0.960598
0.598929,0.622375,0.710631,0.960501
0.598869,0.622323,0.71056,0.960405
0.598809,0.622271,0.710489,0.960309
0.598749,0.622219,0.710418,0.960213
0.598689,0.622167,0.710347,0.960117
0.598629,0.622116,0.710276,0.960021
0.598569,0.622064,0.710205,0.959925
0.59851,0.622012,0.710134,0.959829
0.59845,0.62196,0.710063,0.959733
0.59839,0.621908,0.709992,0.959637
0.59833,0.621856,0.709921,0.959541
0.59827,0.621804,0.70985,0.959445
0.59821,0.621752,0.709779,0.95935
0.598151,0.6217,0.709708,0.959254
0.598091,0.621648,0.709637,0.959158
0.598031,0.621596,0.709566,0.959062
0.597971,0.621544,0.709495,0.958966
0.597911,0.621492,0.709424,0.95887
0.597852,0.62144,0.709353,0.958774
0.597792,0.621389,0.709282,0.958678
0.597732,0.621337,0.709211,0.958582
0.597672,0.621285,0.70914,0.958486
0.597612,0.621233,0.70907,0.958391
0.597553,0.621181,0.708999,0.958295
0.597493,0.621129,0.708928,0.958199
0.597433,0.621077,0.708857,0.958103
0.597373,0.621025,0.708786,0.958007
0.597314,0.620974,0.708715,0.957911
0.597254,0.620922,0.708644,0.957816
0.597194,0.62087,0.708573,0.95772
0.597135,0.620818,0.708502,0.957624
0.597075,0.620766,0.708432,0.957528
0.597015,0.620714,0.708361,0.957433
0.596955,0.620662,0.70829,0.957337
0.596896,0.620611,0.708219,0.957241
0.596836,0.620559,0.708148,0.957145
0.596776,0.620507,0.708077,0.95705
0.596717,0.620455,0.708007,0.956954
0.596657,0.620403,0.707936,0.956858
0.596597,0.620351,0.707865,0.956763
0.596538,0.6203,0.707794,0.956667
0.596478,0.620248,0.707724,0.956571
0.596418,0.620196,0.707653,0.956476
0.596359,0.620144,0.707582,0.95638
0.596299,0.620092,0.707511,0.956284
0.596239,0.620041,0.70744,0.956189
0.59618,0.619989,0.70737,0.956093
0.59612,0.619937,0.707299,0.955997
0.596061,0.619885,0.707228,0.955902
0.596001,0.619834,0.707158,0.955806
0.595941,0.619782,0.707087,0.955711
0.595882,0.61973,0.707016,0.955615
0.595822,0.619678,0.706945,0.95552
0.595763,0.619627,0.706875,0.955424
0.595703,0.619575,0.706804,0.955328
0.595643,0.619523,0.706733,0.955233
0.595584,0.619471,0.706663,0.955137
0.595524,0.61942,0.706592,0.955042
0.595465,0.619368,0.706521,0.954946
0.595405,0.619316,0.706451,0.954851
0.595346,0.619264,0.70638,0.954755
0.595286,0.619213,0.706309,0.95466
0.595227,0.619161,0.706239,0.954564
0.595167,0.619109,0.706168,0.954469
0.595108,0.619058,0.706098,0.954374
0.595048,0.619006,0.706027,0.954278
0.594989,0.618954,0.705956,0.954183
0.594929,0.618903,0.705886,0.954087
0.59487,0.618851,0.705815,0.953992
0.59481,0.618799,0.705745,0.953896
0.594751,0.618747,0.705674,0.953801
0.594691,0.618696,0.705603,0.953706
0.594632,0.618644,0.705533,0.95361
0.594572,0.618592,0.705462,0.953515
0.594513,0.618541,0.705392,0.95342
0.594453,0.618489,0.705321,0.953324
0.594394,0.618437,0.705251,0.953229
0.594334,0.618386,0.70518,0.953134
0.594275,0.618334,0.70511,0.953038
0.594216,0.618283,0.705039,0.952943
0.594156,0.618231,0.704969,0.952848
0.594097,0.618179,0.704898,0.952752
0.594037,0.618128,0.704828,0.952657
0.593978,0.618076,0.704757,0.952562
0.593919,0.618024,0.704687,0.952467
0.593859,0.617973,0.704616,0.952371
0.5938,0.617921,0.704546,0.952276
0.59374,0.61787,0.704475,0.952181
0.593681,0.617818,0.704405,0.952086
0.593622,0.617766,0.704334,0.951991
0.593562,0.617715,0.704264,0.951895
0.593503,0.617663,0.704194,0.9518
0.593444,0.617612,0.704123,0.951705
0.593384,0.61756,0.704053,0.95161
0.593325,0.617508,0.703982,0.951515
0.593266,0.617457,0.703912,0.951419
0.593206,0.617405,0.703842,0.951324
0.593147,0.617354,0.703771,0.951229
0.593088,0.617302,0.703701,0.951134
0.593028,0.617251,0.70363,0.951039
0.592969,0.617199,0.70356,0.950944
0.59291,0.617148,0.70349,0.950849
0.59285,0.617096,0.703419,0.950754
0.592791,0.617044,0.703349,0.950659
0.592732,0.616993,0.703279,0.950564
0.592673,0.616941,0.703208,0.950468
0.592613,0.61689,0.703138,0.950373
0.592554,0.616838,0.703068,0.950278
0.592495,0.616787,0.702997,0.950183
0.592436,0.616735,0.702927,0.950088
0.592376,0.616684,0.702857,0.949993
0.592317,0.616632,0.702787,0.949898
0.592258,0.616581,0.702716,0.949803
0.592199,0.616529,0.702646,0.949708
0.592139,0.616478,0.702576,0.949613
0.59208,0.616426,0.702505,0.949518
0.592021,0.616375,0.702435,0.949423
0.591962,0.616323,0.702365,0.949329
0.591903,0.616272,0.702295,0.949234
0.591843,0.616221,0.702224,0.949139
0.591784,0.616169,0.702154,0.949044
0.591725,0.616118,0.702084,0.948949
0.591666,0.616066,0.702014,0.948854
0.591607,0.616015,0.701944,0.948759
0.591547,0.615963,0.701873,0.948664
0.591488,0.615912,0.701803,0.948569
0.591429,0.61586,0.701733,0.948474
0.59137,0.615809,0.701663,0.94838
0.591311,0.615757,0.701593,0.948285
0.591252,0.615706,0.701523,0.94819
0.591193,0.615655,0.701452,0.948095
0.591134,0.615603,0.701382,0.948
0.591074,0.615552,0.701312,0.947906
0.591015,0.6155,0.701242,0.947811
0.590956,0.615449,0.701172,0.947716
0.590897,0.615398,0.701102,0.947621
0.590838,0.615346,0.701032,0.947526
0.590779,0.615295,0.700962,0.947432
0.59072,0.615243,0.700891,0.947337
0.590661,0.615192,0.700821,0.947242
0.590602,0.615141,0.700751,0.947147
0.590543,0.615089,0.700681,0.947053
0.590484,0.615038,0.700611,0.946958
0.590425,0.614987,0.700541,0.946863
0.590366,0.614935,0.700471,0.946769
0.590306,0.614884,0.721413,0.946674
0.589952,0.614833,0.721341,0.946579
0.589598,0.614781,0.721269,0.946485
0.589245,0.61473,0.721197,0.94639
0.588891,0.614678,0.721124,0.946295
0.588538,0.614627,0.721052,0.946201
0.588185,0.614576,0.72098,0.946106
0.587832,0.614525,0.720908,0.946012
0.587479,0.614473,0.720836,0.945917
0.587127,0.614422,0.720764,0.945822
0.586774,0.614371,0.720692,0.945728
0.586422,0.614319,0.72062,0.945633
0.586071,0.614268,0.720548,0.945539
0.585719,0.614217,0.720476,0.945444
0.585368,0.614165,0.720404,0.94535
0.585016,0.614114,0.720332,0.945255
0.584665,0.614063,0.72026,0.94516
0.584315,0.614011,0.720188,0.945066
0.583964,0.61396,0.720116,0.944971
0.583614,0.613909,0.720044,0.944877
0.583264,0.613858,0.719972,0.944782
0.582914,0.613806,0.7199,0.944688
0.582564,0.613755,0.719828,0.944594
0.582214,0.613704,0.719756,0.944499
0.581865,0.613653,0.719684,0.944405
0.581516,0.613601,0.719612,0.94431
0.581167,0.61355,0.71954,0.944216
0.580819,0.613499,0.719468,0.944121
0.58047,0.613448,0.719396,0.944027
0.580122,0.613396,0.719324,0.943932
0.579774,0.613345,0.719252,0.943838
0.579426,0.613294,0.71918,0.943744
0.579078,0.613243,0.719108,0.943649
0.578731,0.613192,0.719036,0.943555
0.578384,0.61314,0.718964,0.943461
0.578037,0.613089,0.718892,0.943366
0.57769,0.613038,0.71882,0.943272
0.577343,0.612987,0.718749,0.943178
0.576997,0.612936,0.718677,0.943083
0.576651,0.612884,0.718605,0.942989
0.576305,0.612833,0.718533,0.942895
0.575959,0.612782,0.718461,0.9428
0.575613,0.612731,0.718389,0.942706
0.575268,0.61268,0.718317,0.942612
0.574923,0.612628,0.718246,0.942518
0.574578,0.612577,0.718174,0.942423
0.574233,0.612526,0.718102,0.942329
0.573889,0.612475,0.71803,0.942235
0.573545,0.612424,0.717958,0.942141
0.5732,0.612373,0.717887,0.942046
0.572857,0.612322,0.717815,0.941952
0.572513,0.61227,0.717743,0.941858
0.572169,0.612219,0.717671,0.941764
0.571826,0.612168,0.717599,0.94167
0.571483,0.612117,0.717528,0.941575
0.57114,0.612066,0.717456,0.941481
0.570798,0.612015,0.717384,0.941387
0.570455,0.611964,0.717312,0.941293
0.570113,0.611913,0.717241,0.941199
0.569771,0.611861,0.717169,0.941105
0.569429,0.61181,0.717097,0.941011
0.569087,0.611759,0.717026,0.940917
0.568746,0.611708,0.716954,0.940822
0.568405,0.611657,0.716882,0.940728
0.568064,0.611606,0.71681,0.940634
0.567723,0.611555,0.716739,0.94054
0.567382,0.611504,0.716667,0.940446
0.567326,0.611453,0.716595,0.940352
0.567269,0.611402,0.716524,0.940258
0.567212,0.611351,0.716452,0.940164
0.567155,0.6113,0.71638,0.94007
0.567099,0.611249,0.716309,0.939976
0.567042,0.611198,0.716237,0.939882
0.566985,0.611146,0.716166,0.939788
0.566929,0.611095,0.716094,0.939694
0.566872,0.611044,0.716022,0.9396
0.566815,0.610993,0.715951,0.939506
0.566758,0.610942,0.715879,0.939412
0.566702,0.610891,0.715808,0.939318
0.566645,0.61084,0.715736,0.939224
0.566588,0.610789,0.715664,0.93913
0.566532,0.610738,0.715593,0.939037
0.566475,0.610687,0.715521,0.938943
0.566418,0.610636,0.71545,0.938849
0.566362,0.610585,0.715378,0.938755
0.566305,0.610534,0.715307,0.938661
0.566249,0.610483,0.715235,0.938567
0.566192,0.610432,0.715164,0.938473
0.566135,0.610381,0.715092,0.938379
0.566079,0.61033,0.715021,0.938286
0.566022,0.610279,0.714949,0.938192
0.565966,0.610228,0.714878,0.938098
0.565909,0.610177,0.714806,0.938004
0.565852,0.610127,0.714735,0.93791
0.565796,0.610076,0.714663,0.937817
0.565739,0.610025,0.714592,0.937723
0.565683,0.609974,0.71452,0.937629
0.565626,0.609923,0.714449,0.937535
0.565569,0.609872,0.714377,0.937441
0.565513,0.609821,0.714306,0.937348
0.565456,0.60977,0.714234,0.937254
0.5654,0.609719,0.714163,0.93716
0.565343,0.609668,0.714092,0.937067
0.565287,0.609617,0.71402,0.936973
0.56523,0.609566,0.713949,0.936879
0.565174,0.609515,0.713877,0.936785
0.565117,0.609464,0.713806,0.936692
0.565061,0.609414,0.713735,0.936598
0.565004,0.609363,0.713663,0.936504
0.564948,0.609312,0.713592,0.936411
0.564891,0.609261,0.713521,0.936317
0.564835,0.60921,0.713449,0.936224
0.564778,0.609159,0.713378,0.93613
0.564722,0.609108,0.713307,0.936036
0.564665,0.609057,0.713235,0.935943
0.564609,0.609007,0.713164,0.935849
0.564552,0.608956,0.713093,0.935755
0.564496,0.608905,0.713021,0.935662
0.564439,0.608854,0.71295,0.935568
0.564383,0.608803,0.712879,0.935475
0.564327,0.608752,0.712807,0.935381
0.56427,0.608701,0.712736,0.935288
0.564214,0.608651,0.712665,0.935194
0.564157,0.6086,0.712594,0.935101
0.564101,0.608549,0.712522,0.935007
0.564044,0.608498,0.712451,0.934914
0.563988,0.608447,0.71238,0.93482
0.563932,0.608396,0.712309,0.934727
0.563875,0.608346,0.712237,0.934633
0.563819,0.608295,0.712166,0.93454
0.563762,0.608244,0.712095,0.934446
0.563706,0.608193,0.712024,0.934353
0.56365,0.608142,0.711952,0.934259
0.563593,0.608092,0.711881,0.934166
0.563537,0.608041,0.71181,0.934073
0.563481,0.60799,0.711739,0.933979
0.563424,0.607939,0.711668,0.933886
0.563368,0.607889,0.711597,0.933792
0.563312,0.607838,0.711525,0.933699
0.563255,0.607787,0.711454,0.933606
0.563199,0.607736,0.711383,0.933512
0.563143,0.607686,0.711312,0.933419
0.563086,0.607635,0.711241,0.933326
0.56303,0.607584,0.71117,0.933232
0.562974,0.607533,0.711099,0.933139
0.562917,0.607483,0.711027,0.933046
0.562861,0.607432,0.710956,0.932952
0.562805,0.607381,0.710885,0.932859
0.562749,0.60733,0.710814,0.932766
0.562692,0.60728,0.710743,0.932672
0.562636,0.607229,0.710672,0.932579
0.56258,0.607178,0.710601,0.932486
0.562523,0.607128,0.71053,0.932393
0.562467,0.607077,0.710459,0.932299
0.562411,0.607026,0.710388,0.932206
0.562355,0.606975,0.731626,0.932113
0.562017,0.606925,0.731553,0.93202
0.56168,0.606874,0.73148,0.931927
0.561343,0.606823,0.731407,0.931833
0.561006,0.606773,0.731334,0.93174
0.56067,0.606722,0.731261,0.931647
0.560333,0.606671,0.731187,0.931554
0.559997,0.606621,0.731114,0.931461
0.559661,0.60657,0.731041,0.931368
0.559326,0.606519,0.730968,0.931274
0.55899,0.606469,0.730895,0.931181
0.558655,0.606418,0.730822,0.931088
0.558319,0.606367,0.730749,0.930995
0.557984,0.606317,0.730676,0.930902
0.55765,0.606266,0.730603,0.930809
0.557315,0.606215,0.73053,0.930716
0.556981,0.606165,0.730457,0.930623
0.556647,0.606114,0.730384,0.93053
0.556313,0.606064,0.73031,0.930437
0.555979,0.606013,0.730237,0.930344
0.555645,0.605962,0.730164,0.930251
0.555312,0.605912,0.730091,0.930157
0.554979,0.605861,0.730018,0.930064
0.554646,0.605811,0.729945,0.929971
0.554313,0.60576,0.729872,0.929878
0.553981,0.605709,0.729799,0.929785
0.553648,0.605659,0.729726,0.929692
0.553316,0.605608,0.729653,0.9296
0.553261,0.605558,0.72958,0.929507
0.553205,0.605507,0.729508,0.929414
0.55315,0.605457,0.729435,0.929321
0.553095,0.605406,0.729362,0.929228
0.553039,0.605355,0.729289,0.929135
0.552984,0.605305,0.729216,0.929042
0.552929,0.605254,0.729143,0.928949
0.552874,0.605204,0.72907,0.928856
0.552818,0.605153,0.728997,0.928763
0.552763,0.605103,0.728924,0.92867
0.552708,0.605052,0.728851,0.928577
0.552652,0.605002,0.728778,0.928485
0.552597,0.604951,0.728705,0.928392
0.552542,0.604901,0.728633,0.928299
0.552487,0.60485,0.72856,0.928206
0.552431,0.6048,0.728487,0.928113
0.552376,0.604749,0.728414,0.92802
0.552321,0.604699,0.728341,0.927928
0.552266,0.604648,0.728268,0.927835
0.55221,0.604598,0.728196,0.927742
0.552155,0.604547,0.728123,0.927649
0.5521,0.604497,0.72805,0.927557
0.552045,0.604446,0.727977,0.927464
0.55199,0.604396,0.727904,0.927371
0.551934,0.604345,0.727832,0.927278
0.551879,0.604295,0.727759,0.927186
0.551824,0.604244,0.727686,0.927093
0.551769,0.604194,0.727613,0.927
0.551714,0.604143,0.72754,0.926907
0.551658,0.604093,0.727468,0.926815
0.551603,0.604042,0.727395,0.926722
0.551548,0.603992,0.727322,0.926629
0.551493,0.603941,0.727249,0.926537
0.551438,0.603891,0.727177,0.926444
0.551383,0.603841,0.727104,0.926351
0.551328,0.60379,0.727031,0.926259
0.551272,0.60374,0.726959,0.926166
0.551217,0.603689,0.726886,0.926074
0.551162,0.603639,0.726813,0.925981
0.551107,0.603588,0.726741,0.925888
0.551052,0.603538,0.726668,0.925796
0.550997,0.603488,0.726595,0.925703
0.550942,0.603437,0.726523,0.925611
0.550887,0.603387,0.72645,0.925518
0.550832,0.603336,0.726377,0.925426
0.550776,0.603286,0.726305,0.925333
0.550721,0.603236,0.726232,0.92524
0.550666,0.603185,0.726159,0.925148
0.550611,0.603135,0.726087,0.925055
