energy,productivity,fun,hunger
0.832871,0.783432,0.847227,0.73828
0.832788,0.783381,0.872557,0.738206
0.832288,0.78333,0.872469,0.738133
0.831789,0.783279,0.872382,0.738059
0.83129,0.783228,0.872295,0.737985
0.830791,0.783178,0.872208,0.737911
0.830293,0.783127,0.87212,0.737837
0.829795,0.783076,0.872033,0.737764
0.829297,0.783025,0.871946,0.73769
0.828799,0.782974,0.871859,0.737616
0.828302,0.782923,0.871772,0.737542
0.827805,0.782872,0.871684,0.737469
0.827308,0.782821,0.871597,0.737395
0.826812,0.782771,0.87151,0.737321
0.826316,0.78272,0.871423,0.737247
0.82582,0.782669,0.871336,0.737174
0.825325,0.782618,0.871249,0.7371
0.82483,0.782567,0.871161,0.737026
0.824335,0.782516,0.871074,0.736952
0.82384,0.782466,0.870987,0.736879
0.823346,0.782415,0.8709,0.736805
0.822852,0.782364,0.870813,0.736731
0.822358,0.782313,0.870726,0.736658
0.821865,0.782262,0.870639,0.736584
0.821372,0.782211,0.870552,0.73651
0.820879,0.782161,0.870465,0.736437
0.820387,0.78211,0.870378,0.736363
0.819895,0.782059,0.870291,0.736289
0.819403,0.782008,0.870204,0.736216
0.818911,0.781957,0.870117,0.736142
0.81842,0.781907,0.87003,0.736069
0.817929,0.781856,0.869943,0.735995
0.817438,0.781805,0.869856,0.735921
0.816948,0.781754,0.869769,0.735848
0.816457,0.781704,0.869682,0.735774
0.815968,0.781653,0.869595,0.735701
0.815478,0.781602,0.869508,0.735627
0.814989,0.781551,0.869421,0.735553
0.8145,0.7815,0.869334,0.73548
0.814011,0.78145,0.869247,0.735406
0.813523,0.781399,0.86916,0.735333
0.813035,0.781348,0.869073,0.735259
0.812953,0.781297,0.868986,0.735186
0.812872,0.781247,0.894966,0.735112
0.812384,0.781196,0.894877,0.735039
0.811897,0.781145,0.894787,0.734965
0.81141,0.781094,0.894698,0.734892
0.810923,0.781044,0.894608,0.734818
0.810437,0.780993,0.894519,0.734745
0.80995,0.780942,0.894429,0.734671
0.809465,0.780891,0.89434,0.734598
0.808979,0.780841,0.894251,0.734524
0.808494,0.78079,0.894161,0.734451
0.808008,0.780739,0.894072,0.734377
0.807524,0.780689,0.893982,0.734304
0.807039,0.780638,0.893893,0.734231
0.806555,0.780587,0.893803,0.734157
0.806071,0.780536,0.893714,0.734084
0.805588,0.780486,0.893625,0.73401
0.805104,0.780435,0.893535,0.733937
0.804621,0.780384,0.893446,0.733864
0.804138,0.780334,0.893357,0.73379
0.803656,0.780283,0.893267,0.733717
0.803174,0.780232,0.893178,0.733643
0.802692,0.780182,0.893089,0.73357
0.80221,0.780131,0.892999,0.733497
0.801729,0.78008,0.89291,0.733423
0.801248,0.78003,0.892821,0.73335
0.800767,0.779979,0.892732,0.733277
0.800287,0.779928,0.892642,0.733203
0.799807,0.779878,0.892553,0.73313
0.799327,0.779827,0.892464,0.733057
0.798848,0.779776,0.892374,0.732983
0.798368,0.779726,0.892285,0.73291
0.797889,0.779675,0.892196,0.732837
0.797411,0.779624,0.892107,0.732764
0.796932,0.779574,0.892018,0.73269
0.796454,0.779523,0.891928,0.732617
0.795976,0.779472,0.891839,0.732544
0.795499,0.779422,0.89175,0.73247
0.795021,0.779371,0.891661,0.732397
0.794544,0.77932,0.891572,0.732324
0.794465,0.77927,0.891482,0.732251
0.794386,0.779219,0.918135,0.732178
0.793909,0.779169,0.918043,0.732104
0.793433,0.779118,0.917952,0.732031
0.792957,0.779067,0.91786,0.731958
0.792481,0.779017,0.917768,0.731885
0.792005,0.778966,0.917676,0.731812
0.79153,0.778916,0.917584,0.731738
0.791055,0.778865,0.917493,0.731665
0.790581,0.778814,0.917401,0.731592
0.790106,0.778764,0.917309,0.731519
0.789632,0.778713,0.917217,0.731446
0.789159,0.778663,0.917126,0.731373
0.788685,0.778612,0.917034,0.731299
0.788212,0.778561,0.916942,0.731226
0.787739,0.778511,0.916851,0.731153
0.787267,0.77846,0.916759,0.73108
0.786794,0.77841,0.916667,0.731007
0.786322,0.778359,0.916576,0.730934
0.78585,0.778309,0.916484,0.730861
0.785379,0.778258,0.916392,0.730788
0.784908,0.778207,0.916301,0.730715
0.784437,0.778157,0.916209,0.730641
0.783966,0.778106,0.916117,0.730568
0.783496,0.778056,0.916026,0.730495
0.783026,0.778005,0.915934,0.730422
0.782556,0.777955,0.915843,0.730349
0.782087,0.777904,0.915751,0.730276
0.781617,0.777854,0.915659,0.730203
0.781148,0.777803,0.915568,0.73013
0.78068,0.777753,0.915476,0.730057
0.780211,0.777702,0.915385,0.729984
0.779743,0.777652,0.915293,0.729911
0.779276,0.777601,0.915202,0.729838
0.778808,0.777551,0.91511,0.729765
0.778341,0.7775,0.915019,0.729692
0.777874,0.77745,0.914927,0.729619
0.777407,0.777399,0.914836,0.729546
0.776941,0.777349,0.914744,0.729473
0.776475,0.777298,0.914653,0.7294
0.776009,0.777248,0.914561,0.729327
0.775543,0.777197,0.91447,0.729255
0.775078,0.777147,0.914378,0.729182
0.774613,0.777096,0.914287,0.729109
0.774148,0.777046,0.914195,0.729036
0.773684,0.776995,0.914104,0.728963
0.77322,0.776945,0.914013,0.72889
0.772756,0.776894,0.913921,0.728817
0.772292,0.776844,0.91383,0.728744
0.771829,0.776793,0.913738,0.728671
0.771366,0.776743,0.913647,0.728598
0.770903,0.776692,0.913556,0.728526
0.77044,0.776642,0.913464,0.728453
0.769978,0.776591,0.913373,0.72838
0.769516,0.776541,0.913282,0.728307
0.769055,0.776491,0.91319,0.728234
0.768593,0.77644,0.913099,0.728161
0.768132,0.77639,0.913008,0.728089
0.767671,0.776339,0.912916,0.728016
0.767211,0.776289,0.912825,0.727943
0.76675,0.776238,0.912734,0.72787
0.76629,0.776188,0.912643,0.727797
0.765831,0.776138,0.912551,0.727725
0.765754,0.776087,0.91246,0.727652
0.765677,0.776037,0.93974,0.727579
0.765218,0.775986,0.939646,0.727506
0.764759,0.775936,0.939552,0.727434
0.7643,0.775885,0.939458,0.727361
0.763842,0.775835,0.939364,0.727288
0.763383,0.775785,0.93927,0.727215
0.762925,0.775734,0.939176,0.727143
0.762468,0.775684,0.939082,0.72707
0.76201,0.775633,0.938988,0.726997
0.761553,0.775583,0.938894,0.726925
0.761096,0.775533,0.938801,0.726852
0.760639,0.775482,0.938707,0.726779
0.760183,0.775432,0.938613,0.726706
0.759727,0.775382,0.938519,0.726634
0.759271,0.775331,0.938425,0.726561
0.759195,0.775281,0.938331,0.726488
0.759119,0.77523,0.966385,0.726416
0.758664,0.77518,0.966288,0.726343
0.758209,0.77513,0.966191,0.726271
0.757754,0.775079,0.966095,0.726198
0.757299,0.775029,0.965998,0.726125
0.756845,0.774979,0.965901,0.726053
0.756391,0.774928,0.965805,0.72598
0.755937,0.774878,0.965708,0.725907
0.755484,0.774828,0.965612,0.725835
0.75503,0.774777,0.965515,0.725762
0.754577,0.774727,0.965419,0.72569
0.754125,0.774677,0.965322,0.725617
0.753672,0.774626,0.965226,0.725545
0.75322,0.774576,0.965129,0.725472
0.752768,0.774526,0.965032,0.7254
0.752317,0.774475,0.964936,0.725327
0.751865,0.774425,0.964839,0.725254
0.751414,0.774375,0.964743,0.725182
0.750963,0.774325,0.964647,0.725109
0.750513,0.774274,0.96455,0.725037
0.750062,0.774224,0.964454,0.724964
0.749612,0.774174,0.964357,0.724892
0.749163,0.774123,0.964261,0.724819
0.748713,0.774073,0.964164,0.724747
0.748264,0.774023,0.964068,0.724674
0.747815,0.773972,0.963971,0.724602
0.747367,0.773922,0.963875,0.72453
0.746918,0.773872,0.963779,0.724457
0.74647,0.773822,0.963682,0.724385
0.746022,0.773771,0.963586,0.724312
0.745575,0.773721,0.96349,0.72424
0.745127,0.773671,0.963393,0.724167
0.74468,0.773621,0.963297,0.724095
0.744233,0.77357,0.963201,0.724022
0.743787,0.77352,0.963104,0.72395
0.743341,0.77347,0.963008,0.723878
0.742895,0.77342,0.962912,0.723805
0.742449,0.773369,0.962815,0.723733
0.742004,0.773319,0.962719,0.723661
0.741558,0.773269,0.962623,0.723588
0.741114,0.773219,0.962527,0.723516
0.740669,0.773168,0.96243,0.723443
0.740225,0.773118,0.962334,0.723371
0.739781,0.773068,0.962238,0.723299
0.739337,0.773018,0.962142,0.723226
0.738893,0.772968,0.962045,0.723154
0.73845,0.772917,0.961949,0.723082
0.738007,0.772867,0.961853,0.72301
0.737564,0.772817,0.961757,0.722937
0.737122,0.772767,0.961661,0.722865
0.736679,0.772717,0.961564,0.722793
0.736237,0.772666,0.961468,0.72272
0.735796,0.772616,0.961372,0.722648
0.735354,0.772566,0.961276,0.722576
0.734913,0.772516,0.96118,0.722504
0.734472,0.772466,0.961084,0.722431
0.734031,0.772415,0.960988,0.722359
0.733591,0.772365,0.960892,0.722287
0.733151,0.772315,0.960795,0.722215
0.732711,0.772265,0.960699,0.722142
0.732271,0.772215,0.960603,0.72207
0.731832,0.772165,0.960507,0.721998
0.731759,0.772114,0.960411,0.721926
0.731686,0.772064,0.989125,0.721854
0.731247,0.772014,0.989026,0.721781
0.730808,0.771964,0.988927,0.721709
0.73037,0.771914,0.988828,0.721637
0.729931,0.771864,0.988729,0.721565
0.729494,0.771814,0.98863,0.721493
0.729056,0.771763,0.988531,0.721421
0.728618,0.771713,0.988432,0.721348
0.728181,0.771663,0.988334,0.721276
0.727744,0.771613,0.988235,0.721204
0.727308,0.771563,0.988136,0.721132
0.726872,0.771513,0.988037,0.72106
0.726435,0.771463,0.987938,0.720988
0.726,0.771413,0.98784,0.720916
0.725564,0.771362,0.987741,0.720844
0.725129,0.771312,0.987642,0.720772
0.724694,0.771262,0.987543,0.720699
0.724259,0.771212,0.987444,0.720627
0.723824,0.771162,0.987346,0.720555
0.72339,0.771112,0.987247,0.720483
0.722956,0.771062,0.987148,0.720411
0.722522,0.771012,0.98705,0.720339
0.722089,0.770962,0.986951,0.720267
0.721656,0.770912,0.986852,0.720195
0.721584,0.770861,0.986753,0.720123
0.721511,0.770811,1,0.720051
0.721079,0.770761,0.9999,0.719979
0.720646,0.770711,0.9998,0.719907
0.720214,0.770661,0.9997,0.719835
0.719781,0.770611,0.9996,0.719763
0.71935,0.770561,0.9995,0.719691
0.718918,0.770511,0.9994,0.719619
0.718487,0.770461,0.9993,0.719547
0.718056,0.770411,0.9992,0.719475
0.717625,0.770361,0.9991,0.719403
0.717194,0.770311,0.999,0.719331
0.717123,0.770261,0.998901,0.719259
0.717051,0.770211,1,0.719188
0.716621,0.770161,0.9999,0.719116
0.716191,0.770111,0.9998,0.719044
0.715761,0.770061,0.9997,0.718972
0.715332,0.770011,0.9996,0.7189
0.714903,0.769961,0.9995,0.718828
0.714474,0.769911,0.9994,0.718756
0.714045,0.769861,0.9993,0.718684
0.713617,0.769811,0.9992,0.718612
0.713188,0.769761,0.9991,0.718541
0.712761,0.769711,0.999,0.718469
0.712333,0.769661,0.998901,0.718397
0.711906,0.769611,0.998801,0.718325
0.711478,0.769561,0.998701,0.718253
0.711052,0.769511,0.998601,0.718181
0.710625,0.769461,0.998501,0.718109
0.710554,0.769411,0.998401,0.718038
0.710483,0.769361,1,0.717966
0.710057,0.769311,0.9999,0.717894
0.709631,0.769261,0.9998,0.717822
0.709205,0.769211,0.9997,0.717751
0.708779,0.769161,0.9996,0.717679
0.708354,0.769111,0.9995,0.717607
0.707929,0.769061,0.9994,0.717535
0.707505,0.769011,0.9993,0.717463
0.70708,0.768961,0.9992,0.717392
0.706656,0.768911,0.9991,0.71732
0.706232,0.768861,0.999,0.717248
0.705808,0.768811,0.998901,0.717177
0.705385,0.768761,0.998801,0.717105
0.704962,0.768711,0.998701,0.717033
0.704539,0.768661,0.998601,0.716961
0.704116,0.768611,0.998501,0.71689
0.703693,0.768561,0.998401,0.716818
0.703271,0.768511,0.998301,0.716746
0.702849,0.768462,0.998202,0.716675
0.702779,0.768412,0.998102,0.716603
0.702709,0.768362,1,0.716531
0.702287,0.768312,0.9999,0.71646
0.701866,0.768262,0.9998,0.716388
0.701445,0.768212,0.9997,0.716316
0.701024,0.768162,0.9996,0.716245
0.700603,0.768112,0.9995,0.716173
0.700183,0.768062,0.9994,0.716101
0.699763,0.768012,0.9993,0.71603
0.699343,0.767962,0.9992,0.715958
0.698924,0.767913,0.9991,0.715887
0.698504,0.767863,0.999,0.715815
0.698085,0.767813,0.998901,0.715744
0.697666,0.767763,0.998801,0.715672
0.697248,0.767713,0.998701,0.7156
0.696829,0.767663,0.998601,0.715529
0.696411,0.767613,0.998501,0.715457
0.695994,0.767563,0.998401,0.715386
0.695576,0.767514,0.998301,0.715314
0.695159,0.767464,0.998202,0.715243
0.694742,0.767414,0.998102,0.715171
0.694325,0.767364,0.998002,0.7151
0.693908,0.767314,0.997902,0.715028
0.693492,0.767264,0.997802,0.714957
0.693076,0.767215,0.997703,0.714885
0.69266,0.767165,0.997603,0.714814
0.692245,0.767115,0.997503,0.714742
0.691829,0.767065,0.997403,0.714671
0.691414,0.767015,0.997304,0.714599
0.690999,0.766965,0.997204,0.714528
0.690585,0.766916,0.997104,0.714456
0.690516,0.766866,0.997004,0.714385
0.690447,0.766816,1,0.714313
0.690032,0.766766,0.9999,0.714242
0.689618,0.766716,0.9998,0.714171
0.689205,0.766666,0.9997,0.714099
0.688791,0.766617,0.9996,0.714028
0.688378,0.766567,0.9995,0.713956
0.687965,0.766517,0.9994,0.713885
0.687552,0.766467,0.9993,0.713814
0.68714,0.766418,0.9992,0.713742
0.686728,0.766368,0.9991,0.713671
0.686316,0.766318,0.999,0.713599
0.685904,0.766268,0.998901,0.713528
0.685492,0.766218,0.998801,0.713457
0.685081,0.766169,0.998701,0.713385
0.68467,0.766119,0.998601,0.713314
0.684259,0.766069,0.998501,0.713243
0.683849,0.766019,0.998401,0.713171
0.683438,0.76597,0.998301,0.7131
0.683028,0.76592,0.998202,0.713029
0.682619,0.76587,0.998102,0.712957
0.682209,0.76582,0.998002,0.712886
0.6818,0.765771,0.997902,0.712815
0.681391,0.765721,0.997802,0.712744
0.681323,0.765671,0.997703,0.712672
0.681254,0.765621,1,0.712601
0.680846,0.765572,0.9999,0.71253
0.680437,0.765522,0.9998,0.712458
0.680029,0.765472,0.9997,0.712387
0.679621,0.765422,0.9996,0.712316
0.679213,0.765373,0.9995,0.712245
0.678806,0.765323,0.9994,0.712174
0.678399,0.765273,0.9993,0.712102
0.677992,0.765224,0.9992,0.712031
0.677585,0.765174,0.9991,0.71196
0.677178,0.765124,0.999,0.711889
0.676772,0.765074,0.998901,0.711818
0.676366,0.765025,0.998801,0.711746
0.67596,0.764975,0.998701,0.711675
0.675555,0.764925,0.998601,0.711604
0.675149,0.764876,0.998501,0.711533
0.674744,0.764826,0.998401,0.711462
0.674339,0.764776,0.998301,0.711391
0.673935,0.764727,0.998202,0.711319
0.673531,0.764677,0.998102,0.711248
0.673127,0.764627,0.998002,0.711177
0.672723,0.764578,0.997902,0.711106
0.672319,0.764528,0.997802,0.711035
0.671916,0.764478,0.997703,0.710964
0.671513,0.764429,0.997603,0.710893
0.67111,0.764379,0.997503,0.710822
0.670707,0.764329,0.997403,0.710751
0.670305,0.76428,0.997304,0.710679
0.670238,0.76423,0.997204,0.710608
0.670171,0.76418,1,0.710537
0.669769,0.764131,0.9999,0.710466
0.669367,0.764081,0.9998,0.710395
0.668965,0.764031,0.9997,0.710324
0.668564,0.763982,0.9996,0.710253
0.668163,0.763932,0.9995,0.710182
0.667762,0.763883,0.9994,0.710111
0.667361,0.763833,0.9993,0.71004
0.666961,0.763783,0.9992,0.709969
0.666561,0.763734,0.9991,0.709898
0.666161,0.763684,0.999,0.709827
0.665761,0.763634,0.998901,0.709756
0.665362,0.763585,0.998801,0.709685
0.664963,0.763535,0.998701,0.709614
0.664564,0.763486,0.998601,0.709543
0.664165,0.763436,0.998501,0.709472
0.663766,0.763386,0.998401,0.709401
0.663368,0.763337,0.998301,0.70933
0.66297,0.763287,0.998202,0.709259
0.662572,0.763238,0.998102,0.709189
0.662175,0.763188,0.998002,0.709118
0.661778,0.763139,0.997902,0.709047
0.661381,0.763089,0.997802,0.708976
0.660984,0.763039,0.997703,0.708905
0.660587,0.76299,0.997603,0.708834
0.660191,0.76294,0.997503,0.708763
0.659795,0.762891,0.997403,0.708692
0.659399,0.762841,0.997304,0.708621
0.659003,0.762792,0.997204,0.708551
0.658608,0.762742,0.997104,0.70848
0.658213,0.762692,0.997004,0.708409
0.657818,0.762643,0.996905,0.708338
0.657423,0.762593,0.996805,0.708267
0.657029,0.762544,0.996705,0.708196
0.656635,0.762494,0.996606,0.708126
0.656569,0.762445,0.996506,0.708055
0.656503,0.762395,1,0.707984
0.65611,0.762346,0.9999,0.707913
0.655716,0.762296,0.9998,0.707842
0.655323,0.762247,0.9997,0.707772
0.654929,0.762197,0.9996,0.707701
0.654536,0.762148,0.9995,0.70763
0.654144,0.762098,0.9994,0.707559
0.653751,0.762049,0.9993,0.707488
0.653359,0.761999,0.9992,0.707418
0.652967,0.76195,0.9991,0.707347
0.652575,0.7619,0.999,0.707276
0.652184,0.761851,0.998901,0.707205
0.651793,0.761801,0.998801,0.707135
0.651402,0.761752,0.998701,0.707064
0.651011,0.761702,0.998601,0.706993
0.65062,0.761653,0.998501,0.706923
0.65023,0.761603,0.998401,0.706852
0.64984,0.761554,0.998301,0.706781
0.64945,0.761504,0.998202,0.706711
0.64906,0.761455,0.998102,0.70664
0.648671,0.761405,0.998002,0.706569
0.648282,0.761356,0.997902,0.706499
0.647893,0.761306,0.997802,0.706428
0.647504,0.761257,0.997703,0.706357
0.647116,0.761208,0.997603,0.706287
0.646727,0.761158,0.997503,0.706216
0.646339,0.761109,0.997403,0.706145
0.645952,0.761059,0.997304,0.706075
0.645564,0.76101,0.997204,0.706004
0.645177,0.76096,0.997104,0.705934
0.64479,0.760911,0.997004,0.705863
0.644403,0.760861,0.996905,0.705792
0.644016,0.760812,0.996805,0.705722
0.64363,0.760763,0.996705,0.705651
0.643244,0.760713,0.996606,0.705581
0.642858,0.760664,0.996506,0.70551
0.642472,0.760614,0.996406,0.70544
0.642087,0.760565,0.996307,0.705369
0.641701,0.760516,0.996207,0.705299
0.641316,0.760466,0.996107,0.705228
0.641252,0.760417,0.996008,0.705157
0.641188,0.760367,1,0.705087
0.640803,0.760318,0.9999,0.705016
0.640419,0.760269,0.9998,0.704946
0.640035,0.760219,0.9997,0.704875
0.639651,0.76017,0.9996,0.704805
0.639267,0.76012,0.9995,0.704734
0.638883,0.760071,0.9994,0.704664
0.6385,0.760022,0.9993,0.704594
0.638117,0.759972,0.9992,0.704523
0.637734,0.759923,0.9991,0.704453
0.637352,0.759874,0.999,0.704382
0.636969,0.759824,0.998901,0.704312
0.636587,0.759775,0.998801,0.704241
0.636205,0.759726,0.998701,0.704171
0.635824,0.759676,0.998601,0.7041
0.63576,0.759627,0.998501,0.70403
0.635696,0.759577,1,0.70396
0.635315,0.759528,0.9999,0.703889
0.634934,0.759479,0.9998,0.703819
0.634553,0.759429,0.9997,0.703748
0.634172,0.75938,0.9996,0.703678
0.633792,0.759331,0.9995,0.703608
0.633411,0.759281,0.9994,0.703537
0.633031,0.759232,0.9993,0.703467
0.632652,0.759183,0.9992,0.703397
0.632272,0.759134,0.9991,0.703326
0.631893,0.759084,0.999,0.703256
0.631514,0.759035,0.998901,0.703186
0.631135,0.758986,0.998801,0.703115
0.630756,0.758936,0.998701,0.703045
0.630378,0.758887,0.998601,0.702975
0.63,0.758838,0.998501,0.702904
0.629622,0.758788,0.998401,0.702834
0.629244,0.758739,0.998301,0.702764
0.628866,0.75869,0.998202,0.702694
0.628489,0.758641,0.998102,0.702623
0.628112,0.758591,0.998002,0.702553
0.627735,0.758542,0.997902,0.702483
0.627359,0.758493,0.997802,0.702413
0.626982,0.758443,0.997703,0.702342
0.626606,0.758394,0.997603,0.702272
0.62623,0.758345,0.997503,0.702202
0.625854,0.758296,0.997403,0.702132
0.625479,0.758246,0.997304,0.702061
0.625104,0.758197,0.997204,0.701991
0.625041,0.758148,0.997104,0.701921
0.624979,0.758099,1,0.701851
0.624604,0.758049,0.9999,0.701781
0.624229,0.758,0.9998,0.70171
0.623854,0.757951,0.9997,0.70164
0.62348,0.757902,0.9996,0.70157
0.623106,0.757852,0.9995,0.7015
0.622732,0.757803,0.9994,0.70143
0.622359,0.757754,0.9993,0.70136
0.621985,0.757705,0.9992,0.70129
0.621612,0.757655,0.9991,0.701219
0.621239,0.757606,0.999,0.701149
0.620866,0.757557,0.998901,0.701079
0.620494,0.757508,0.998801,0.701009
0.620122,0.757459,0.998701,0.700939
0.61975,0.757409,0.998601,0.700869
0.619378,0.75736,0.998501,0.700799
0.619006,0.757311,0.998401,0.700729
0.618635,0.757262,0.998301,0.700659
0.618264,0.757213,0.998202,0.700589
0.617893,0.757163,0.998102,0.700519
0.617522,0.757114,0.998002,0.700448
0.617152,0.757065,0.997902,0.700378
0.616781,0.757016,0.997802,0.700308
0.616411,0.756967,0.997703,0.700238
0.616041,0.756918,0.997603,0.700168
0.615672,0.756868,0.997503,0.700098
0.615302,0.756819,0.997403,0.700028
0.614933,0.75677,0.997304,0.699958
0.614564,0.756721,0.997204,0.699888
0.614196,0.756672,0.997104,0.699818
0.613827,0.756623,0.997004,0.699748
0.613459,0.756573,0.996905,0.699678
0.613091,0.756524,0.996805,0.699608
0.612723,0.756475,0.996705,0.699538
0.612355,0.756426,0.996606,0.699468
0.611988,0.756377,0.996506,0.699399
0.611621,0.756328,0.996406,0.699329
0.611254,0.756279,0.996307,0.699259
0.610887,0.756229,0.996207,0.699189
0.610521,0.75618,0.996107,0.699119
0.61046,0.756131,0.996008,0.699049
0.610399,0.756082,1,0.698979
0.610032,0.756033,0.9999,0.698909
0.609666,0.755984,0.9998,0.698839
0.609301,0.755935,0.9997,0.698769
0.608935,0.755886,0.9996,0.698699
0.60857,0.755837,0.9995,0.69863
0.608205,0.755787,0.9994,0.69856
0.60784,0.755738,0.9993,0.69849
0.607475,0.755689,0.9992,0.69842
0.607111,0.75564,0.9991,0.69835
0.606746,0.755591,0.999,0.69828
0.606382,0.755542,0.998901,0.698211
0.606019,0.755493,0.998801,0.698141
0.605655,0.755444,0.998701,0.698071
0.605594,0.755395,0.998601,0.698001
0.605534,0.755346,1,0.697931
0.605171,0.755297,0.9999,0.697861
0.604808,0.755248,0.9998,0.697792
0.604445,0.755199,0.9997,0.697722
0.604082,0.755149,0.9996,0.697652
0.60372,0.7551,0.9995,0.697582
0.603357,0.755051,0.9994,0.697513
0.602995,0.755002,0.9993,0.697443
