energy,productivity,fun,hunger
0.700977,0.823307,0.783666,0.86402
0.700907,0.823255,0.807096,0.863934
0.700486,0.823204,0.807015,0.863848
0.700066,0.823153,0.806934,0.863761
0.699646,0.823101,0.806853,0.863675
0.699226,0.82305,0.806773,0.863589
0.698807,0.822999,0.806692,0.863502
0.698387,0.822947,0.806611,0.863416
0.697968,0.822896,0.806531,0.863329
0.69755,0.822845,0.80645,0.863243
0.697131,0.822793,0.806369,0.863157
0.696713,0.822742,0.806289,0.863071
0.696295,0.822691,0.806208,0.862984
0.695877,0.82264,0.806128,0.862898
0.69546,0.822588,0.806047,0.862812
0.695042,0.822537,0.805966,0.862725
0.694625,0.822486,0.805886,0.862639
0.694209,0.822435,0.805805,0.862553
0.693792,0.822383,0.805725,0.862467
0.693376,0.822332,0.805644,0.86238
0.69296,0.822281,0.805563,0.862294
0.692544,0.822229,0.805483,0.862208
0.692129,0.822178,0.805402,0.862122
0.691713,0.822127,0.805322,0.862035
0.691298,0.822076,0.805241,0.861949
0.690884,0.822025,0.805161,0.861863
0.690469,0.821973,0.80508,0.861777
0.6904,0.821922,0.805,0.861691
0.690331,0.821871,0.829067,0.861604
0.689917,0.82182,0.828984,0.861518
0.689503,0.821768,0.828901,0.861432
0.689089,0.821717,0.828818,0.861346
0.688676,0.821666,0.828735,0.86126
0.688263,0.821615,0.828652,0.861174
0.68785,0.821563,0.82857,0.861088
0.687437,0.821512,0.828487,0.861002
0.687025,0.821461,0.828404,0.860915
0.686613,0.82141,0.828321,0.860829
0.686201,0.821359,0.828238,0.860743
0.685789,0.821307,0.828155,0.860657
0.685377,0.821256,0.828072,0.860571
0.684966,0.821205,0.82799,0.860485
0.684555,0.821154,0.827907,0.860399
0.684145,0.821103,0.827824,0.860313
0.683734,0.821052,0.827741,0.860227
0.683324,0.821,0.827659,0.860141
0.682914,0.820949,0.827576,0.860055
0.682504,0.820898,0.827493,0.859969
0.682095,0.820847,0.82741,0.859883
0.681686,0.820796,0.827328,0.859797
0.681277,0.820745,0.827245,0.859711
0.680868,0.820693,0.827162,0.859625
0.680459,0.820642,0.827079,0.859539
0.680051,0.820591,0.826997,0.859453
0.679643,0.82054,0.826914,0.859367
0.679235,0.820489,0.826831,0.859281
0.678828,0.820438,0.826749,0.859195
0.678421,0.820386,0.826666,0.859109
0.678014,0.820335,0.826583,0.859023
0.677607,0.820284,0.826501,0.858937
0.6772,0.820233,0.826418,0.858852
0.676794,0.820182,0.826335,0.858766
0.676388,0.820131,0.826253,0.85868
0.675982,0.82008,0.82617,0.858594
0.675577,0.820029,0.826087,0.858508
0.675171,0.819977,0.826005,0.858422
0.674766,0.819926,0.825922,0.858336
0.674361,0.819875,0.82584,0.858251
0.673957,0.819824,0.825757,0.858165
0.673553,0.819773,0.825674,0.858079
0.673148,0.819722,0.825592,0.857993
0.672745,0.819671,0.825509,0.857907
0.672341,0.81962,0.825427,0.857822
0.671938,0.819569,0.825344,0.857736
0.671534,0.819518,0.825262,0.85765
0.671132,0.819466,0.825179,0.857564
0.670729,0.819415,0.825097,0.857478
0.670327,0.819364,0.825014,0.857393
0.669924,0.819313,0.824932,0.857307
0.669522,0.819262,0.824849,0.857221
0.669121,0.819211,0.824767,0.857136
0.668719,0.81916,0.824684,0.85705
0.668318,0.819109,0.824602,0.856964
0.667917,0.819058,0.824519,0.856878
0.667516,0.819007,0.824437,0.856793
0.66745,0.818956,0.824354,0.856707
0.667383,0.818905,0.849,0.856621
0.666983,0.818854,0.848915,0.856536
0.666582,0.818803,0.84883,0.85645
0.666182,0.818752,0.848745,0.856364
0.665783,0.818701,0.848661,0.856279
0.665383,0.81865,0.848576,0.856193
0.664984,0.818599,0.848491,0.856108
0.664585,0.818548,0.848406,0.856022
0.664186,0.818497,0.848321,0.855936
0.663788,0.818446,0.848236,0.855851
0.66339,0.818394,0.848151,0.855765
0.662992,0.818343,0.848067,0.85568
0.662594,0.818292,0.847982,0.855594
0.662196,0.818241,0.847897,0.855508
0.661799,0.81819,0.847812,0.855423
0.661402,0.818139,0.847727,0.855337
0.661005,0.818088,0.847643,0.855252
0.660609,0.818037,0.847558,0.855166
0.660212,0.817986,0.847473,0.855081
0.659816,0.817935,0.847388,0.854995
0.659421,0.817885,0.847304,0.85491
0.659025,0.817834,0.847219,0.854824
0.65863,0.817783,0.847134,0.854739
0.658234,0.817732,0.84705,0.854653
0.657839,0.817681,0.846965,0.854568
0.657445,0.81763,0.84688,0.854482
0.65705,0.817579,0.846795,0.854397
0.656656,0.817528,0.846711,0.854312
0.656262,0.817477,0.846626,0.854226
0.655868,0.817426,0.846541,0.854141
0.655475,0.817375,0.846457,0.854055
0.655082,0.817324,0.846372,0.85397
0.654689,0.817273,0.846287,0.853884
0.654296,0.817222,0.846203,0.853799
0.653903,0.817171,0.846118,0.853714
0.653511,0.81712,0.846034,0.853628
0.653119,0.817069,0.845949,0.853543
0.652727,0.817018,0.845864,0.853458
0.652336,0.816967,0.84578,0.853372
0.651944,0.816916,0.845695,0.853287
0.651553,0.816866,0.845611,0.853202
0.651162,0.816815,0.845526,0.853116
0.650771,0.816764,0.845442,0.853031
0.650381,0.816713,0.845357,0.852946
0.649991,0.816662,0.845272,0.85286
0.649601,0.816611,0.845188,0.852775
0.649211,0.81656,0.845103,0.85269
0.649146,0.816509,0.845019,0.852605
0.649081,0.816458,0.870282,0.852519
0.648692,0.816407,0.870195,0.852434
0.648303,0.816356,0.870108,0.852349
0.647914,0.816306,0.870021,0.852264
0.647525,0.816255,0.869934,0.852178
0.647137,0.816204,0.869847,0.852093
0.646748,0.816153,0.86976,0.852008
0.64636,0.816102,0.869673,0.851923
0.645973,0.816051,0.869586,0.851837
0.645585,0.816,0.8695,0.851752
0.645198,0.815949,0.869413,0.851667
0.644811,0.815899,0.869326,0.851582
0.644424,0.815848,0.869239,0.851497
0.644037,0.815797,0.869152,0.851412
0.643651,0.815746,0.869065,0.851326
0.643265,0.815695,0.868978,0.851241
0.642879,0.815644,0.868891,0.851156
0.642493,0.815594,0.868804,0.851071
0.642107,0.815543,0.868717,0.850986
0.641722,0.815492,0.86863,0.850901
0.641337,0.815441,0.868544,0.850816
0.640952,0.81539,0.868457,0.850731
0.640568,0.815339,0.86837,0.850646
0.640184,0.815289,0.868283,0.850561
0.6398,0.815238,0.868196,0.850476
0.639416,0.815187,0.868109,0.850391
0.639032,0.815136,0.868023,0.850305
0.638649,0.815085,0.867936,0.85022
0.638266,0.815034,0.867849,0.850135
0.637883,0.814984,0.867762,0.85005
0.6375,0.814933,0.867675,0.849965
0.637117,0.814882,0.867589,0.84988
0.636735,0.814831,0.867502,0.849795
0.636353,0.814781,0.867415,0.84971
0.635971,0.81473,0.867328,0.849625
0.63559,0.814679,0.867242,0.84954
0.635209,0.814628,0.867155,0.849456
0.634827,0.814577,0.867068,0.849371
0.634447,0.814527,0.866982,0.849286
0.634066,0.814476,0.866895,0.849201
0.633686,0.814425,0.866808,0.849116
0.633305,0.814374,0.866721,0.849031
0.632925,0.814324,0.866635,0.848946
0.632546,0.814273,0.866548,0.848861
0.632166,0.814222,0.866461,0.848776
0.632103,0.814171,0.866375,0.848691
0.63204,0.814121,0.892277,0.848606
0.631661,0.81407,0.892188,0.848522
0.631282,0.814019,0.892098,0.848437
0.630903,0.813968,0.892009,0.848352
0.630524,0.813918,0.89192,0.848267
0.630146,0.813867,0.891831,0.848182
0.629768,0.813816,0.891742,0.848097
0.62939,0.813765,0.891652,0.848013
0.629013,0.813715,0.891563,0.847928
0.62895,0.813664,0.891474,0.847843
0.628887,0.813613,0.918126,0.847758
0.628509,0.813562,0.918035,0.847673
0.628132,0.813512,0.917943,0.847589
0.627756,0.813461,0.917851,0.847504
0.627379,0.81341,0.917759,0.847419
0.627003,0.81336,0.917668,0.847334
0.626626,0.813309,0.917576,0.84725
0.62625,0.813258,0.917484,0.847165
0.625875,0.813208,0.917392,0.84708
0.625499,0.813157,0.917301,0.846996
0.625124,0.813106,0.917209,0.846911
0.624749,0.813056,0.917117,0.846826
0.624374,0.813005,0.917025,0.846741
0.623999,0.812954,0.916934,0.846657
0.623625,0.812903,0.916842,0.846572
0.623251,0.812853,0.91675,0.846487
0.622877,0.812802,0.916659,0.846403
0.622503,0.812751,0.916567,0.846318
0.62213,0.812701,0.916475,0.846234
0.621757,0.81265,0.916384,0.846149
0.621384,0.8126,0.916292,0.846064
0.621011,0.812549,0.9162,0.84598
0.620638,0.812498,0.916109,0.845895
0.620266,0.812448,0.916017,0.845811
0.619894,0.812397,0.915926,0.845726
0.619522,0.812346,0.915834,0.845641
0.61915,0.812296,0.915742,0.845557
0.618779,0.812245,0.915651,0.845472
0.618407,0.812194,0.915559,0.845388
0.618036,0.812144,0.915468,0.845303
0.617666,0.812093,0.915376,0.845219
0.617295,0.812043,0.915285,0.845134
0.616925,0.811992,0.915193,0.84505
0.616555,0.811941,0.915102,0.844965
0.616185,0.811891,0.91501,0.844881
0.615815,0.81184,0.914919,0.844796
0.615446,0.811789,0.914827,0.844712
0.615076,0.811739,0.914736,0.844627
0.614707,0.811688,0.914644,0.844543
0.614339,0.811638,0.914553,0.844458
0.61397,0.811587,0.914461,0.844374
0.613602,0.811537,0.91437,0.844289
0.613234,0.811486,0.914278,0.844205
0.612866,0.811435,0.914187,0.844121
0.612498,0.811385,0.914095,0.844036
0.61213,0.811334,0.914004,0.843952
0.611763,0.811284,0.913913,0.843867
0.611396,0.811233,0.913821,0.843783
0.611029,0.811182,0.91373,0.843699
0.610663,0.811132,0.913638,0.843614
0.610296,0.811081,0.913547,0.84353
0.610235,0.811031,0.913456,0.843445
0.610174,0.81098,0.940765,0.843361
0.609808,0.81093,0.940671,0.843277
0.609442,0.810879,0.940577,0.843192
0.609077,0.810829,0.940483,0.843108
0.608711,0.810778,0.940389,0.843024
0.608346,0.810728,0.940295,0.84294
0.607981,0.810677,0.940201,0.842855
0.607616,0.810626,0.940107,0.842771
0.607252,0.810576,0.940013,0.842687
0.606888,0.810525,0.939919,0.842602
0.606523,0.810475,0.939825,0.842518
0.60616,0.810424,0.939731,0.842434
0.605796,0.810374,0.939637,0.84235
0.605432,0.810323,0.939543,0.842265
0.605069,0.810273,0.939449,0.842181
0.604706,0.810222,0.939355,0.842097
0.604343,0.810172,0.939261,0.842013
0.603981,0.810121,0.939167,0.841929
0.603619,0.810071,0.939073,0.841844
0.603256,0.81002,0.938979,0.84176
0.602894,0.80997,0.938886,0.841676
0.602533,0.809919,0.938792,0.841592
0.602171,0.809869,0.938698,0.841508
0.60181,0.809818,0.938604,0.841424
0.601449,0.809768,0.93851,0.841339
0.601088,0.809717,0.938416,0.841255
0.600727,0.809667,0.938322,0.841171
0.600367,0.809616,0.938229,0.841087
0.600007,0.809566,0.938135,0.841003
0.599647,0.809516,0.938041,0.840919
0.599287,0.809465,0.937947,0.840835
0.598928,0.809415,0.937853,0.840751
0.598568,0.809364,0.93776,0.840667
0.598209,0.809314,0.937666,0.840582
0.59785,0.809263,0.937572,0.840498
0.597492,0.809213,0.937478,0.840414
0.597133,0.809162,0.937384,0.84033
0.596775,0.809112,0.937291,0.840246
0.596417,0.809062,0.937197,0.840162
0.596059,0.809011,0.937103,0.840078
0.595701,0.808961,0.93701,0.839994
0.595344,0.80891,0.936916,0.83991
0.594987,0.80886,0.936822,0.839826
0.59463,0.808809,0.936729,0.839742
0.594273,0.808759,0.936635,0.839658
0.593917,0.808709,0.936541,0.839574
0.59356,0.808658,0.936448,0.83949
0.593204,0.808608,0.936354,0.839406
0.592848,0.808557,0.93626,0.839322
0.592493,0.808507,0.936167,0.839239
0.592137,0.808457,0.936073,0.839155
0.592078,0.808406,0.935979,0.839071
0.592019,0.808356,0.963962,0.838987
0.591664,0.808305,0.963866,0.838903
0.591309,0.808255,0.96377,0.838819
0.590954,0.808205,0.963673,0.838735
0.590599,0.808154,0.963577,0.838651
0.590245,0.808104,0.96348,0.838567
0.589891,0.808054,0.963384,0.838484
0.589537,0.808003,0.963288,0.8384
0.589183,0.807953,0.963191,0.838316
0.58883,0.807902,0.963095,0.838232
0.588476,0.807852,0.962999,0.838148
0.588123,0.807802,0.962903,0.838064
0.587771,0.807751,0.962806,0.837981
0.587418,0.807701,0.96271,0.837897
0.587066,0.807651,0.962614,0.837813
0.586713,0.8076,0.962517,0.837729
0.586361,0.80755,0.962421,0.837645
0.58601,0.8075,0.962325,0.837562
0.585658,0.807449,0.962229,0.837478
0.585307,0.807399,0.962132,0.837394
0.584955,0.807349,0.962036,0.83731
0.584604,0.807298,0.96194,0.837227
0.584254,0.807248,0.961844,0.837143
0.583903,0.807198,0.961748,0.837059
0.583553,0.807147,0.961652,0.836976
0.583203,0.807097,0.961555,0.836892
0.582853,0.807047,0.961459,0.836808
0.582503,0.806996,0.961363,0.836724
0.582154,0.806946,0.961267,0.836641
0.581804,0.806896,0.961171,0.836557
0.581455,0.806846,0.961075,0.836473
0.581107,0.806795,0.960979,0.83639
0.580758,0.806745,0.960882,0.836306
0.58041,0.806695,0.960786,0.836223
0.580061,0.806644,0.96069,0.836139
0.579713,0.806594,0.960594,0.836055
0.579366,0.806544,0.960498,0.835972
0.579018,0.806494,0.960402,0.835888
0.578671,0.806443,0.960306,0.835805
0.578613,0.806393,0.96021,0.835721
0.578555,0.806343,0.988917,0.835637
0.578208,0.806293,0.988819,0.835554
0.577861,0.806242,0.98872,0.83547
0.577514,0.806192,0.988621,0.835387
0.577168,0.806142,0.988522,0.835303
0.576821,0.806092,0.988423,0.83522
0.576475,0.806041,0.988324,0.835136
0.576129,0.805991,0.988225,0.835053
0.575784,0.805941,0.988127,0.834969
0.575438,0.805891,0.988028,0.834886
0.575093,0.80584,0.987929,0.834802
0.574748,0.80579,0.98783,0.834719
0.574403,0.80574,0.987731,0.834635
0.574059,0.80569,0.987633,0.834552
0.573714,0.805639,0.987534,0.834468
0.57337,0.805589,0.987435,0.834385
0.573026,0.805539,0.987336,0.834301
0.572682,0.805489,0.987238,0.834218
0.572339,0.805439,0.987139,0.834135
0.571995,0.805388,0.98704,0.834051
0.571652,0.805338,0.986941,0.833968
0.571309,0.805288,0.986843,0.833884
0.570966,0.805238,0.986744,0.833801
0.570624,0.805188,0.986645,0.833718
0.570282,0.805137,0.986547,0.833634
0.569939,0.805087,0.986448,0.833551
0.569597,0.805037,0.986349,0.833467
0.569256,0.804987,0.986251,0.833384
0.568914,0.804937,0.986152,0.833301
0.568573,0.804886,0.986054,0.833217
0.568232,0.804836,0.985955,0.833134
0.567891,0.804786,0.985856,0.833051
0.56755,0.804736,0.985758,0.832967
0.56721,0.804686,0.985659,0.832884
0.567153,0.804636,0.985561,0.832801
0.567096,0.804586,1,0.832718
0.566756,0.804535,0.9999,0.832634
0.566416,0.804485,0.9998,0.832551
0.566076,0.804435,0.9997,0.832468
0.565737,0.804385,0.9996,0.832385
0.565397,0.804335,0.9995,0.832301
0.565058,0.804285,0.9994,0.832218
0.564719,0.804235,0.9993,0.832135
0.56438,0.804184,0.9992,0.832052
0.564041,0.804134,0.9991,0.831968
0.563703,0.804084,0.999,0.831885
0.563365,0.804034,0.998901,0.831802
0.563027,0.803984,0.998801,0.831719
0.562689,0.803934,0.998701,0.831636
0.562352,0.803884,0.998601,0.831553
0.562014,0.803834,0.998501,0.831469
0.561677,0.803783,0.998401,0.831386
0.56134,0.803733,0.998301,0.831303
0.561003,0.803683,0.998202,0.83122
0.560667,0.803633,0.998102,0.831137
0.56033,0.803583,0.998002,0.831054
0.559994,0.803533,0.997902,0.830971
0.559658,0.803483,0.997802,0.830888
0.559322,0.803433,0.997703,0.830804
0.558987,0.803383,0.997603,0.830721
0.558651,0.803333,0.997503,0.830638
0.558316,0.803283,0.997403,0.830555
0.557981,0.803233,0.997304,0.830472
0.557647,0.803182,0.997204,0.830389
0.557312,0.803132,0.997104,0.830306
0.556978,0.803082,0.997004,0.830223
0.556643,0.803032,0.996905,0.83014
0.55631,0.802982,0.996805,0.830057
0.555976,0.802932,0.996705,0.829974
0.55592,0.802882,0.996606,0.829891
0.555865,0.802832,1,0.829808
0.555531,0.802782,0.9999,0.829725
0.555198,0.802732,0.9998,0.829642
0.554865,0.802682,0.9997,0.829559
0.554532,0.802632,0.9996,0.829476
0.554199,0.802582,0.9995,0.829393
0.553867,0.802532,0.9994,0.82931
0.553534,0.802482,0.9993,0.829227
0.553202,0.802432,0.9992,0.829144
0.55287,0.802382,0.9991,0.829062
0.552539,0.802332,0.999,0.828979
0.552207,0.802282,0.998901,0.828896
0.551876,0.802232,0.998801,0.828813
0.551545,0.802182,0.998701,0.82873
0.551214,0.802132,0.998601,0.828647
0.550883,0.802082,0.998501,0.828564
0.550553,0.802032,0.998401,0.828481
0.550222,0.801982,0.998301,0.828399
0.549892,0.801932,0.998202,0.828316
0.549562,0.801882,0.998102,0.828233
0.549233,0.801832,0.998002,0.82815
0.548903,0.801782,0.997902,0.828067
0.548574,0.801732,0.997802,0.827984
0.548245,0.801682,0.997703,0.827902
0.547916,0.801632,0.997603,0.827819
0.547587,0.801582,0.997503,0.827736
0.547259,0.801532,0.997403,0.827653
0.54693,0.801482,0.997304,0.82757
0.546602,0.801432,0.997204,0.827488
0.546274,0.801382,0.997104,0.827405
0.545946,0.801332,0.997004,0.827322
0.545619,0.801282,0.996905,0.82724
0.545291,0.801232,0.996805,0.827157
0.544964,0.801182,0.996705,0.827074
0.544637,0.801132,0.996606,0.826991
0.544311,0.801082,0.996506,0.826909
0.543984,0.801032,0.996406,0.826826
0.54393,0.800983,0.996307,0.826743
0.543875,0.800933,1,0.826661
0.543549,0.800883,0.9999,0.826578
0.543223,0.800833,0.9998,0.826495
0.542897,0.800783,0.9997,0.826413
0.542571,0.800733,0.9996,0.82633
0.542246,0.800683,0.9995,0.826247
0.54192,0.800633,0.9994,0.826165
0.541595,0.800583,0.9993,0.826082
0.54127,0.800533,0.9992,0.826
0.540946,0.800483,0.9991,0.825917
0.540621,0.800434,0.999,0.825834
0.540297,0.800384,0.998901,0.825752
0.539973,0.800334,0.998801,0.825669
0.539649,0.800284,0.998701,0.825587
0.539325,0.800234,0.998601,0.825504
0.539001,0.800184,0.998501,0.825422
0.538678,0.800134,0.998401,0.825339
0.538355,0.800084,0.998301,0.825256
0.538032,0.800034,0.998202,0.825174
0.537978,0.799985,0.998102,0.825091
0.537924,0.799935,1,0.825009
0.537601,0.799885,0.9999,0.824926
0.537279,0.799835,0.9998,0.824844
0.536957,0.799785,0.9997,0.824761
0.536634,0.799735,0.9996,0.824679
0.536312,0.799685,0.9995,0.824596
0.535991,0.799636,0.9994,0.824514
0.535669,0.799586,0.9993,0.824432
0.535348,0.799536,0.9992,0.824349
0.535027,0.799486,0.9991,0.824267
0.534706,0.799436,0.999,0.824184
0.534385,0.799386,0.998901,0.824102
0.534064,0.799337,0.998801,0.824019
0.533744,0.799287,0.998701,0.823937
0.533424,0.799237,0.998601,0.823855
0.533104,0.799187,0.998501,0.823772
0.532784,0.799137,0.998401,0.82369
0.532464,0.799088,0.998301,0.823607
0.532145,0.799038,0.998202,0.823525
0.531825,0.798988,0.998102,0.823443
0.531506,0.798938,0.998002,0.82336
0.531187,0.798888,0.997902,0.823278
0.530869,0.798839,0.997802,0.823196
0.53055,0.798789,0.997703,0.823113
0.530232,0.798739,0.997603,0.823031
0.529914,0.798689,0.997503,0.822949
0.529596,0.798639,0.997403,0.822867
0.529278,0.79859,0.997304,0.822784
0.528961,0.79854,0.997204,0.822702
0.528908,0.79849,0.997104,0.82262
0.528855,0.79844,1,0.822537
0.528538,0.79839,0.9999,0.822455
0.52822,0.798341,0.9998,0.822373
0.527904,0.798291,0.9997,0.822291
0.527587,0.798241,0.9996,0.822208
0.52727,0.798191,0.9995,0.822126
0.526954,0.798142,0.9994,0.822044
0.526638,0.798092,0.9993,0.821962
0.526322,0.798042,0.9992,0.82188
0.526006,0.797992,0.9991,0.821797
0.525691,0.797943,0.999,0.821715
0.525638,0.797893,0.998901,0.821633
0.525585,0.797843,1,0.821551
0.52527,0.797793,0.9999,0.821469
0.524955,0.797744,0.9998,0.821387
0.52464,0.797694,0.9997,0.821304
0.524325,0.797644,0.9996,0.821222
0.524011,0.797595,0.9995,0.82114
0.523958,0.797545,0.9994,0.821058
0.523906,0.797495,1,0.820976
0.523592,0.797445,0.9999,0.820894
0.523277,0.797396,0.9998,0.820812
0.522963,0.797346,0.9997,0.82073
0.52265,0.797296,0.9996,0.820648
0.522336,0.797247,0.9995,0.820566
0.522023,0.797197,0.9994,0.820484
0.52171,0.797147,0.9993,0.820402
0.521397,0.797098,0.9992,0.820319
0.521084,0.797048,0.9991,0.820237
0.520771,0.796998,0.999,0.820155
0.520459,0.796949,0.998901,0.820073
0.520146,0.796899,0.998801,0.819991
0.519834,0.796849,0.998701,0.819909
0.519523,0.7968,0.998601,0.819827
0.519211,0.79675,0.998501,0.819745
0.518899,0.7967,0.998401,0.819663
0.518588,0.796651,0.998301,0.819581
0.518277,0.796601,0.998202,0.8195
0.517966,0.796551,0.998102,0.819418
0.517655,0.796502,0.998002,0.819336
0.517345,0.796452,0.997902,0.819254
0.517034,0.796402,0.997802,0.819172
0.516724,0.796353,0.997703,0.81909
0.516414,0.796303,0.997603,0.819008
0.516104,0.796253,0.997503,0.818926
0.515795,0.796204,0.997403,0.818844
0.515485,0.796154,0.997304,0.818762
0.515176,0.796104,0.997204,0.81868
0.514867,0.796055,0.997104,0.818599
0.514558,0.796005,0.997004,0.818517
0.514249,0.795956,0.996905,0.818435
0.513941,0.795906,0.996805,0.818353
0.513632,0.795856,0.996705,0.818271
0.513324,0.795807,0.996606,0.818189
0.513273,0.795757,0.996506,0.818107
0.513222,0.795708,1,0.818026
0.512914,0.795658,0.9999,0.817944
0.512606,0.795608,0.9998,0.817862
0.512298,0.795559,0.9997,0.81778
0.511991,0.795509,0.9996,0.817699
0.511684,0.79546,0.9995,0.817617
0.511377,0.79541,0.9994,0.817535
0.51107,0.79536,0.9993,0.817453
0.510763,0.795311,0.9992,0.817371
0.510457,0.795261,0.9991,0.81729
0.510151,0.795212,0.999,0.817208
0.509845,0.795162,0.998901,0.817126
0.509539,0.795113,0.998801,0.817045
0.509233,0.795063,0.998701,0.816963
0.508928,0.795013,0.998601,0.816881
0.508622,0.794964,0.998501,0.816799
0.508317,0.794914,0.998401,0.816718
0.508012,0.794865,0.998301,0.816636
0.507707,0.794815,0.998202,0.816554
