energy,productivity,fun,hunger
0.785044,0.696439,0.804214,0.743907
0.784965,0.696394,0.828258,0.743833
0.784494,0.696349,0.828175,0.743758
0.784023,0.696304,0.828092,0.743684
0.783553,0.696259,0.828009,0.74361
0.783083,0.696214,0.827927,0.743535
0.782613,0.696169,0.827844,0.743461
0.782144,0.696125,0.827761,0.743387
0.781674,0.69608,0.827678,0.743312
0.781205,0.696035,0.827596,0.743238
0.780737,0.69599,0.827513,0.743164
0.780268,0.695945,0.82743,0.743089
0.7798,0.6959,0.827347,0.743015
0.779332,0.695855,0.827265,0.742941
0.778865,0.69581,0.827182,0.742866
0.778398,0.695766,0.827099,0.742792
0.777931,0.695721,0.827016,0.742718
0.777464,0.695676,0.826934,0.742643
0.776997,0.695631,0.826851,0.742569
0.776531,0.695586,0.826768,0.742495
0.776065,0.695541,0.826686,0.742421
0.7756,0.695496,0.826603,0.742346
0.775134,0.695452,0.82652,0.742272
0.774669,0.695407,0.826438,0.742198
0.774205,0.695362,0.826355,0.742124
0.77374,0.695317,0.826272,0.74205
0.773276,0.695272,0.82619,0.741975
0.772812,0.695227,0.826107,0.741901
0.772348,0.695183,0.826025,0.741827
0.771885,0.695138,0.825942,0.741753
0.771422,0.695093,0.825859,0.741679
0.770959,0.695048,0.825777,0.741604
0.770497,0.695003,0.825694,0.74153
0.770034,0.694959,0.825612,0.741456
0.769572,0.694914,0.825529,0.741382
0.769495,0.694869,0.825446,0.741308
0.769418,0.694824,0.850125,0.741234
0.768957,0.694779,0.85004,0.74116
0.768495,0.694735,0.849955,0.741085
0.768034,0.69469,0.84987,0.741011
0.767574,0.694645,0.849785,0.740937
0.767113,0.6946,0.8497,0.740863
0.766653,0.694555,0.849615,0.740789
0.766193,0.694511,0.84953,0.740715
0.765733,0.694466,0.849445,0.740641
0.765274,0.694421,0.84936,0.740567
0.764815,0.694376,0.849275,0.740493
0.764356,0.694331,0.84919,0.740419
0.763897,0.694287,0.849105,0.740345
0.763439,0.694242,0.84902,0.740271
0.762981,0.694197,0.848935,0.740197
0.762523,0.694152,0.848851,0.740123
0.762066,0.694108,0.848766,0.740049
0.761609,0.694063,0.848681,0.739975
0.761152,0.694018,0.848596,0.739901
0.760695,0.693973,0.848511,0.739827
0.760239,0.693929,0.848426,0.739753
0.759782,0.693884,0.848341,0.739679
0.759327,0.693839,0.848257,0.739605
0.758871,0.693794,0.848172,0.739531
0.758416,0.69375,0.848087,0.739457
0.757961,0.693705,0.848002,0.739383
0.757506,0.69366,0.847917,0.739309
0.757052,0.693616,0.847832,0.739235
0.756597,0.693571,0.847748,0.739161
0.756143,0.693526,0.847663,0.739087
0.75569,0.693481,0.847578,0.739013
0.755614,0.693437,0.847493,0.738939
0.755539,0.693392,0.872831,0.738865
0.755085,0.693347,0.872744,0.738792
0.754632,0.693303,0.872656,0.738718
0.75418,0.693258,0.872569,0.738644
0.753727,0.693213,0.872482,0.73857
0.753275,0.693168,0.872395,0.738496
0.752823,0.693124,0.872307,0.738422
0.752371,0.693079,0.87222,0.738348
0.75192,0.693034,0.872133,0.738275
0.751469,0.69299,0.872046,0.738201
0.751018,0.692945,0.871958,0.738127
0.750567,0.6929,0.871871,0.738053
0.750117,0.692856,0.871784,0.737979
0.749667,0.692811,0.871697,0.737905
0.749217,0.692766,0.87161,0.737832
0.748768,0.692722,0.871523,0.737758
0.748319,0.692677,0.871435,0.737684
0.74787,0.692632,0.871348,0.73761
0.747421,0.692588,0.871261,0.737537
0.746973,0.692543,0.871174,0.737463
0.746898,0.692498,0.871087,0.737389
0.746823,0.692454,0.89713,0.737315
0.746375,0.692409,0.89704,0.737242
0.745927,0.692364,0.89695,0.737168
0.74548,0.69232,0.896861,0.737094
0.745033,0.692275,0.896771,0.73702
0.744586,0.692231,0.896681,0.736947
0.744139,0.692186,0.896592,0.736873
0.743692,0.692141,0.896502,0.736799
0.743246,0.692097,0.896412,0.736726
0.7428,0.692052,0.896323,0.736652
0.742355,0.692007,0.896233,0.736578
0.741909,0.691963,0.896143,0.736505
0.741464,0.691918,0.896054,0.736431
0.741019,0.691874,0.895964,0.736357
0.740575,0.691829,0.895875,0.736284
0.740131,0.691784,0.895785,0.73621
0.739686,0.69174,0.895695,0.736137
0.739243,0.691695,0.895606,0.736063
0.738799,0.691651,0.895516,0.735989
0.738356,0.691606,0.895427,0.735916
0.737913,0.691561,0.895337,0.735842
0.73747,0.691517,0.895248,0.735769
0.737028,0.691472,0.895158,0.735695
0.736954,0.691428,0.895069,0.735621
0.73688,0.691383,0.921829,0.735548
0.736438,0.691338,0.921736,0.735474
0.735997,0.691294,0.921644,0.735401
0.735555,0.691249,0.921552,0.735327
0.735114,0.691205,0.92146,0.735254
0.734673,0.69116,0.921368,0.73518
0.734232,0.691116,0.921276,0.735107
0.733791,0.691071,0.921183,0.735033
0.733351,0.691026,0.921091,0.73496
0.732911,0.690982,0.920999,0.734886
0.732471,0.690937,0.920907,0.734813
0.732032,0.690893,0.920815,0.734739
0.731593,0.690848,0.920723,0.734666
0.731154,0.690804,0.920631,0.734592
0.730715,0.690759,0.920539,0.734519
0.730277,0.690715,0.920447,0.734445
0.729839,0.69067,0.920355,0.734372
0.729401,0.690626,0.920263,0.734298
0.728963,0.690581,0.920171,0.734225
0.728526,0.690537,0.920079,0.734152
0.728089,0.690492,0.919987,0.734078
0.727652,0.690448,0.919895,0.734005
0.727215,0.690403,0.919803,0.733931
0.726779,0.690358,0.919711,0.733858
0.726343,0.690314,0.919619,0.733785
0.725907,0.690269,0.919527,0.733711
0.725472,0.690225,0.919435,0.733638
0.725037,0.69018,0.919343,0.733564
0.724602,0.690136,0.919251,0.733491
0.724167,0.690091,0.919159,0.733418
0.723732,0.690047,0.919067,0.733344
0.72366,0.690002,0.918975,0.733271
0.723588,0.689958,0.94645,0.733198
0.723154,0.689913,0.946355,0.733124
0.72272,0.689869,0.94626,0.733051
0.722286,0.689825,0.946166,0.732978
0.721853,0.68978,0.946071,0.732905
0.72142,0.689736,0.945977,0.732831
0.720987,0.689691,0.945882,0.732758
0.720554,0.689647,0.945787,0.732685
0.720122,0.689602,0.945693,0.732611
0.71969,0.689558,0.945598,0.732538
0.719258,0.689513,0.945504,0.732465
0.718827,0.689469,0.945409,0.732392
0.718395,0.689424,0.945315,0.732318
0.717964,0.68938,0.94522,0.732245
0.717534,0.689335,0.945126,0.732172
0.717103,0.689291,0.945031,0.732099
0.716673,0.689247,0.944937,0.732026
0.716243,0.689202,0.944842,0.731952
0.715813,0.689158,0.944748,0.731879
0.715384,0.689113,0.944653,0.731806
0.714955,0.689069,0.944559,0.731733
0.714526,0.689024,0.944464,0.73166
0.714097,0.68898,0.94437,0.731586
0.713669,0.688936,0.944275,0.731513
0.71324,0.688891,0.944181,0.73144
0.712813,0.688847,0.944086,0.731367
0.712385,0.688802,0.943992,0.731294
0.711957,0.688758,0.943898,0.731221
0.71153,0.688713,0.943803,0.731148
0.711103,0.688669,0.943709,0.731074
0.710677,0.688625,0.943615,0.731001
0.710606,0.68858,0.94352,0.730928
0.710535,0.688536,0.971729,0.730855
0.710108,0.688491,0.971631,0.730782
0.709682,0.688447,0.971534,0.730709
0.709257,0.688403,0.971437,0.730636
0.708831,0.688358,0.97134,0.730563
0.708406,0.688314,0.971243,0.73049
0.707981,0.68827,0.971146,0.730417
0.707556,0.688225,0.971049,0.730344
0.707132,0.688181,0.970951,0.730271
0.706707,0.688136,0.970854,0.730198
0.706283,0.688092,0.970757,0.730125
0.70586,0.688048,0.97066,0.730052
0.705436,0.688003,0.970563,0.729979
0.705013,0.687959,0.970466,0.729906
0.70459,0.687915,0.970369,0.729833
0.704167,0.68787,0.970272,0.72976
0.703745,0.687826,0.970175,0.729687
0.703323,0.687782,0.970078,0.729614
0.702901,0.687737,0.969981,0.729541
0.702479,0.687693,0.969884,0.729468
0.702057,0.687649,0.969787,0.729395
0.701636,0.687604,0.96969,0.729322
0.701215,0.68756,0.969593,0.729249
0.700795,0.687516,0.969496,0.729176
0.700374,0.687471,0.969399,0.729103
0.699954,0.687427,0.969302,0.72903
0.699534,0.687383,0.969205,0.728957
0.699114,0.687338,0.969108,0.728884
0.698695,0.687294,0.969011,0.728812
0.698276,0.68725,0.968914,0.728739
0.697857,0.687205,0.968818,0.728666
0.697438,0.687161,0.968721,0.728593
0.69702,0.687117,0.968624,0.72852
0.696602,0.687072,0.968527,0.728447
0.696184,0.687028,0.96843,0.728374
0.695766,0.686984,0.968333,0.728301
0.695348,0.686939,0.968236,0.728229
0.694931,0.686895,0.96814,0.728156
0.694862,0.686851,0.968043,0.728083
0.694792,0.686807,0.996984,0.72801
0.694375,0.686762,0.996885,0.727937
0.693959,0.686718,0.996785,0.727865
0.693543,0.686674,0.996685,0.727792
0.693126,0.68663,0.996586,0.727719
0.692711,0.686585,0.996486,0.727646
0.692295,0.686541,0.996386,0.727574
0.69188,0.686497,0.996287,0.727501
0.691465,0.686452,0.996187,0.727428
0.69105,0.686408,0.996087,0.727355
0.690635,0.686364,0.995988,0.727283
0.690221,0.68632,0.995888,0.72721
0.689807,0.686275,0.995789,0.727137
0.689393,0.686231,0.995689,0.727064
0.688979,0.686187,0.99559,0.726992
0.688566,0.686143,0.99549,0.726919
0.688153,0.686098,0.99539,0.726846
0.68774,0.686054,0.995291,0.726774
0.687327,0.68601,0.995191,0.726701
0.686915,0.685966,0.995092,0.726628
0.686503,0.685922,0.994992,0.726556
0.686434,0.685877,0.994893,0.726483
0.686366,0.685833,1,0.72641
0.685954,0.685789,0.9999,0.726338
0.685542,0.685745,0.9998,0.726265
0.685131,0.6857,0.9997,0.726192
0.68472,0.685656,0.9996,0.72612
0.684309,0.685612,0.9995,0.726047
0.683899,0.685568,0.9994,0.725975
0.683488,0.685524,0.9993,0.725902
0.683078,0.685479,0.9992,0.725829
0.682668,0.685435,0.9991,0.725757
0.682259,0.685391,0.999,0.725684
0.681849,0.685347,0.998901,0.725612
0.68144,0.685303,0.998801,0.725539
0.681032,0.685258,0.998701,0.725467
0.680623,0.685214,0.998601,0.725394
0.680215,0.68517,0.998501,0.725321
0.679807,0.685126,0.998401,0.725249
0.679399,0.685082,0.998301,0.725176
0.678991,0.685038,0.998202,0.725104
0.678584,0.684993,0.998102,0.725031
0.678177,0.684949,0.998002,0.724959
0.67777,0.684905,0.997902,0.724886
0.677363,0.684861,0.997802,0.724814
0.676957,0.684817,0.997703,0.724741
0.676551,0.684773,0.997603,0.724669
0.676483,0.684728,0.997503,0.724596
0.676415,0.684684,1,0.724524
0.676009,0.68464,0.9999,0.724452
0.675604,0.684596,0.9998,0.724379
0.675199,0.684552,0.9997,0.724307
0.674794,0.684508,0.9996,0.724234
0.674389,0.684464,0.9995,0.724162
0.673984,0.684419,0.9994,0.724089
0.67358,0.684375,0.9993,0.724017
0.673176,0.684331,0.9992,0.723945
0.672772,0.684287,0.9991,0.723872
0.672368,0.684243,0.999,0.7238
0.671965,0.684199,0.998901,0.723727
0.671562,0.684155,0.998801,0.723655
0.671159,0.684111,0.998701,0.723583
0.670756,0.684067,0.998601,0.72351
0.670354,0.684022,0.998501,0.723438
0.669951,0.683978,0.998401,0.723366
0.669549,0.683934,0.998301,0.723293
0.669148,0.68389,0.998202,0.723221
0.668746,0.683846,0.998102,0.723149
0.668345,0.683802,0.998002,0.723076
0.667944,0.683758,0.997902,0.723004
0.667543,0.683714,0.997802,0.722932
0.667477,0.68367,0.997703,0.722859
0.66741,0.683626,1,0.722787
0.667009,0.683582,0.9999,0.722715
0.666609,0.683537,0.9998,0.722643
0.666209,0.683493,0.9997,0.72257
0.66581,0.683449,0.9996,0.722498
0.66541,0.683405,0.9995,0.722426
0.665011,0.683361,0.9994,0.722354
0.664612,0.683317,0.9993,0.722281
0.664213,0.683273,0.9992,0.722209
0.663815,0.683229,0.9991,0.722137
0.663417,0.683185,0.999,0.722065
0.663019,0.683141,0.998901,0.721992
0.662621,0.683097,0.998801,0.72192
0.662554,0.683053,0.998701,0.721848
0.662488,0.683009,1,0.721776
0.662091,0.682965,0.9999,0.721704
0.661694,0.682921,0.9998,0.721632
0.661297,0.682877,0.9997,0.721559
0.6609,0.682833,0.9996,0.721487
0.660503,0.682789,0.9995,0.721415
0.660107,0.682745,0.9994,0.721343
0.659711,0.682701,0.9993,0.721271
0.659315,0.682657,0.9992,0.721199
0.65892,0.682613,0.9991,0.721127
0.658524,0.682569,0.999,0.721054
0.658129,0.682525,0.998901,0.720982
0.657734,0.682481,0.998801,0.72091
0.65734,0.682437,0.998701,0.720838
0.656945,0.682393,0.998601,0.720766
0.656551,0.682349,0.998501,0.720694
0.656157,0.682305,0.998401,0.720622
0.655764,0.682261,0.998301,0.72055
0.65537,0.682217,0.998202,0.720478
0.654977,0.682173,0.998102,0.720406
0.654584,0.682129,0.998002,0.720334
0.654191,0.682085,0.997902,0.720262
0.653799,0.682041,0.997802,0.72019
0.653407,0.681997,0.997703,0.720118
0.653015,0.681953,0.997603,0.720046
0.652623,0.681909,0.997503,0.719974
0.652231,0.681865,0.997403,0.719902
0.65184,0.681821,0.997304,0.71983
0.651449,0.681777,0.997204,0.719758
0.651058,0.681733,0.997104,0.719686
0.650668,0.681689,0.997004,0.719614
0.650277,0.681645,0.996905,0.719542
0.650212,0.681601,0.996805,0.71947
0.650147,0.681557,1,0.719398
0.649757,0.681513,0.9999,0.719326
0.649367,0.681469,0.9998,0.719254
0.648978,0.681425,0.9997,0.719182
0.648588,0.681381,0.9996,0.71911
0.648199,0.681337,0.9995,0.719038
0.64781,0.681293,0.9994,0.718966
0.647422,0.68125,0.9993,0.718894
0.647033,0.681206,0.9992,0.718822
0.646645,0.681162,0.9991,0.718751
0.646257,0.681118,0.999,0.718679
0.645869,0.681074,0.998901,0.718607
0.645482,0.68103,0.998801,0.718535
0.645095,0.680986,0.998701,0.718463
0.644708,0.680942,0.998601,0.718391
0.644321,0.680898,0.998501,0.718319
0.643934,0.680854,0.998401,0.718248
0.643548,0.68081,0.998301,0.718176
0.643162,0.680766,0.998202,0.718104
0.642776,0.680723,0.998102,0.718032
0.64239,0.680679,0.998002,0.71796
0.642005,0.680635,0.997902,0.717889
0.64162,0.680591,0.997802,0.717817
0.641235,0.680547,0.997703,0.717745
0.64085,0.680503,0.997603,0.717673
0.640466,0.680459,0.997503,0.717601
0.640081,0.680415,0.997403,0.71753
0.639697,0.680372,0.997304,0.717458
0.639314,0.680328,0.997204,0.717386
0.63925,0.680284,0.997104,0.717314
0.639186,0.68024,1,0.717243
0.638802,0.680196,0.9999,0.717171
0.638419,0.680152,0.9998,0.717099
0.638036,0.680108,0.9997,0.717028
0.637653,0.680065,0.9996,0.716956
0.637271,0.680021,0.9995,0.716884
0.636888,0.679977,0.9994,0.716813
0.636506,0.679933,0.9993,0.716741
0.636124,0.679889,0.9992,0.716669
0.635743,0.679845,0.9991,0.716597
0.635361,0.679802,0.999,0.716526
0.63498,0.679758,0.998901,0.716454
0.634599,0.679714,0.998801,0.716383
0.634218,0.67967,0.998701,0.716311
0.633838,0.679626,0.998601,0.716239
0.633458,0.679582,0.998501,0.716168
0.633394,0.679539,0.998401,0.716096
0.633331,0.679495,1,0.716024
0.632951,0.679451,0.9999,0.715953
0.632571,0.679407,0.9998,0.715881
0.632192,0.679363,0.9997,0.71581
0.631812,0.67932,0.9996,0.715738
0.631433,0.679276,0.9995,0.715666
0.631055,0.679232,0.9994,0.715595
0.630676,0.679188,0.9993,0.715523
0.630298,0.679144,0.9992,0.715452
0.629919,0.679101,0.9991,0.71538
0.629542,0.679057,0.999,0.715309
0.629164,0.679013,0.998901,0.715237
0.628786,0.678969,0.998801,0.715166
0.628409,0.678925,0.998701,0.715094
0.628032,0.678882,0.998601,0.715023
0.627655,0.678838,0.998501,0.714951
0.627279,0.678794,0.998401,0.71488
0.626902,0.67875,0.998301,0.714808
0.626526,0.678707,0.998202,0.714737
0.62615,0.678663,0.998102,0.714665
0.625775,0.678619,0.998002,0.714594
0.625399,0.678575,0.997902,0.714522
0.625024,0.678532,0.997802,0.714451
0.624649,0.678488,0.997703,0.714379
0.624274,0.678444,0.997603,0.714308
0.6239,0.6784,0.997503,0.714236
0.623526,0.678357,0.997403,0.714165
0.623151,0.678313,0.997304,0.714094
0.622778,0.678269,0.997204,0.714022
0.622404,0.678225,0.997104,0.713951
0.622031,0.678182,0.997004,0.713879
0.621657,0.678138,0.996905,0.713808
0.621595,0.678094,0.996805,0.713737
0.621533,0.67805,1,0.713665
0.62116,0.678007,0.9999,0.713594
0.620788,0.677963,0.9998,0.713523
0.620415,0.677919,0.9997,0.713451
0.620043,0.677876,0.9996,0.71338
0.619671,0.677832,0.9995,0.713309
0.619299,0.677788,0.9994,0.713237
0.618928,0.677745,0.9993,0.713166
0.618556,0.677701,0.9992,0.713095
0.618185,0.677657,0.9991,0.713023
0.617814,0.677613,0.999,0.712952
0.617444,0.67757,0.998901,0.712881
0.617073,0.677526,0.998801,0.712809
0.616703,0.677482,0.998701,0.712738
0.616333,0.677439,0.998601,0.712667
0.615963,0.677395,0.998501,0.712596
0.615594,0.677351,0.998401,0.712524
0.615224,0.677308,0.998301,0.712453
0.614855,0.677264,0.998202,0.712382
0.614486,0.67722,0.998102,0.712311
0.614118,0.677177,0.998002,0.712239
0.613749,0.677133,0.997902,0.712168
0.613381,0.677089,0.997802,0.712097
0.613013,0.677046,0.997703,0.712026
0.612645,0.677002,0.997603,0.711954
0.612278,0.676958,0.997503,0.711883
0.61191,0.676915,0.997403,0.711812
0.611543,0.676871,0.997304,0.711741
0.611176,0.676827,0.997204,0.71167
0.611115,0.676784,0.997104,0.711599
0.611054,0.67674,1,0.711527
0.610687,0.676697,0.9999,0.711456
0.610321,0.676653,0.9998,0.711385
0.609955,0.676609,0.9997,0.711314
0.609589,0.676566,0.9996,0.711243
0.609223,0.676522,0.9995,0.711172
0.608858,0.676478,0.9994,0.711101
0.608492,0.676435,0.9993,0.711029
0.608127,0.676391,0.9992,0.710958
0.607763,0.676348,0.9991,0.710887
0.607398,0.676304,0.999,0.710816
0.607034,0.67626,0.998901,0.710745
0.606669,0.676217,0.998801,0.710674
0.606305,0.676173,0.998701,0.710603
0.605942,0.67613,0.998601,0.710532
0.605578,0.676086,0.998501,0.710461
0.605215,0.676042,0.998401,0.71039
0.604852,0.675999,0.998301,0.710319
0.604489,0.675955,0.998202,0.710248
0.604126,0.675912,0.998102,0.710177
0.604066,0.675868,0.998002,0.710106
0.604005,0.675824,1,0.710035
0.603643,0.675781,0.9999,0.709964
0.603281,0.675737,0.9998,0.709893
0.602919,0.675694,0.9997,0.709822
0.602557,0.67565,0.9996,0.709751
0.602196,0.675607,0.9995,0.70968
0.601834,0.675563,0.9994,0.709609
0.601473,0.67552,0.9993,0.709538
0.601112,0.675476,0.9992,0.709467
0.601052,0.675432,0.9991,0.709396
0.600992,0.675389,1,0.709325
0.600632,0.675345,0.9999,0.709254
0.600271,0.675302,0.9998,0.709183
0.599911,0.675258,0.9997,0.709112
0.599551,0.675215,0.9996,0.709041
0.599192,0.675171,0.9995,0.70897
0.598832,0.675128,0.9994,0.708899
0.598473,0.675084,0.9993,0.708829
0.598114,0.675041,0.9992,0.708758
0.597755,0.674997,0.9991,0.708687
0.597396,0.674954,0.999,0.708616
0.597038,0.67491,0.998901,0.708545
0.59668,0.674867,0.998801,0.708474
0.596322,0.674823,0.998701,0.708403
0.595964,0.674779,0.998601,0.708333
0.595606,0.674736,0.998501,0.708262
0.595249,0.674692,0.998401,0.708191
0.594892,0.674649,0.998301,0.70812
0.594535,0.674605,0.998202,0.708049
0.594178,0.674562,0.998102,0.707978
0.593822,0.674518,0.998002,0.707908
0.593466,0.674475,0.997902,0.707837
0.59311,0.674432,0.997802,0.707766
0.592754,0.674388,0.997703,0.707695
0.592398,0.674345,0.997603,0.707625
0.592043,0.674301,0.997503,0.707554
0.591687,0.674258,0.997403,0.707483
0.591332,0.674214,0.997304,0.707412
0.590978,0.674171,0.997204,0.707342
0.590623,0.674127,0.997104,0.707271
0.590564,0.674084,0.997004,0.7072
0.590505,0.67404,1,0.707129
0.590151,0.673997,0.9999,0.707059
0.589797,0.673953,0.9998,0.706988
0.589443,0.67391,0.9997,0.706917
0.589089,0.673866,0.9996,0.706847
0.588736,0.673823,0.9995,0.706776
0.588383,0.67378,0.9994,0.706705
0.58803,0.673736,0.9993,0.706635
0.587677,0.673693,0.9992,0.706564
0.587324,0.673649,0.9991,0.706493
0.586972,0.673606,0.999,0.706423
0.58662,0.673562,0.998901,0.706352
0.586268,0.673519,0.998801,0.706281
0.585916,0.673476,0.998701,0.706211
0.585564,0.673432,0.998601,0.70614
0.585213,0.673389,0.998501,0.706069
0.584862,0.673345,0.998401,0.705999
0.584511,0.673302,0.998301,0.705928
0.584161,0.673258,0.998202,0.705858
0.58381,0.673215,0.998102,0.705787
0.58346,0.673172,0.998002,0.705716
0.58311,0.673128,0.997902,0.705646
0.58276,0.673085,0.997802,0.705575
0.58241,0.673041,0.997703,0.705505
0.582061,0.672998,0.997603,0.705434
0.581712,0.672955,0.997503,0.705364
0.581363,0.672911,0.997403,0.705293
0.581014,0.672868,0.997304,0.705223
0.580665,0.672824,0.997204,0.705152
0.580317,0.672781,0.997104,0.705082
0.579969,0.672738,0.997004,0.705011
0.579621,0.672694,0.996905,0.704941
0.579273,0.672651,0.996805,0.70487
0.578926,0.672608,0.996705,0.7048
0.578578,0.672564,0.996606,0.704729
0.578231,0.672521,0.996506,0.704659
0.578173,0.672477,0.996406,0.704588
0.578115,0.672434,1,0.704518
0.577769,0.672391,0.9999,0.704447
0.577422,0.672347,0.9998,0.704377
0.577076,0.672304,0.9997,0.704306
0.576729,0.672261,0.9996,0.704236
0.576383,0.672217,0.9995,0.704165
0.576038,0.672174,0.9994,0.704095
0.575692,0.672131,0.9993,0.704025
0.575347,0.672087,0.9992,0.703954
0.575001,0.672044,0.9991,0.703884
0.574656,0.672001,0.999,0.703813
0.574312,0.671957,0.998901,0.703743
0.573967,0.671914,0.998801,0.703673
0.573623,0.671871,0.998701,0.703602
0.573279,0.671827,0.998601,0.703532
0.572935,0.671784,0.998501,0.703462
0.572591,0.671741,0.998401,0.703391
0.572247,0.671697,0.998301,0.703321
0.571904,0.671654,0.998202,0.703251
0.571561,0.671611,0.998102,0.70318
0.571218,0.671568,0.998002,0.70311
0.570875,0.671524,0.997902,0.70304
0.570533,0.671481,0.997802,0.702969
0.570191,0.671438,0.997703,0.702899
0.569848,0.671394,0.997603,0.702829
0.569507,0.671351,0.997503,0.702759
