energy,productivity,fun,hunger
0.850356,0.406533,0.836327,0.838743
0.850271,0.406454,0.836244,0.838659
0.84976,0.406374,0.83616,0.838575
0.849251,0.406295,0.836077,0.838491
0.848741,0.406215,0.835993,0.838407
0.848232,0.406136,0.835909,0.838324
0.847723,0.406056,0.835826,0.83824
0.847214,0.405977,0.835742,0.838156
0.846706,0.405898,0.835659,0.838072
0.846198,0.405818,0.835575,0.837988
0.845691,0.405739,0.835491,0.837905
0.845183,0.40566,0.835408,0.837821
0.844676,0.40558,0.835324,0.837737
0.844169,0.405501,0.835241,0.837653
0.843663,0.405422,0.835157,0.837569
0.843157,0.405342,0.835074,0.837486
0.842651,0.405263,0.83499,0.837402
0.842145,0.405184,0.834907,0.837318
0.84164,0.405104,0.834823,0.837234
0.841135,0.405025,0.83474,0.837151
0.84063,0.404946,0.834656,0.837067
0.840126,0.404867,0.834573,0.836983
0.839622,0.404788,0.834489,0.8369
0.839118,0.404708,0.834406,0.836816
0.838615,0.404629,0.834323,0.836732
0.838112,0.40455,0.834239,0.836649
0.837609,0.404471,0.834156,0.836565
0.837106,0.404392,0.834072,0.836481
0.836604,0.404313,0.833989,0.836398
0.836102,0.404234,0.833905,0.836314
0.835601,0.404155,0.833822,0.83623
0.835099,0.404076,0.833739,0.836147
0.834598,0.403997,0.833655,0.836063
0.834098,0.403918,0.833572,0.83598
0.833597,0.403839,0.833489,0.835896
0.833097,0.40376,0.833405,0.835812
0.832597,0.403681,0.833322,0.835729
0.832098,0.403602,0.833239,0.835645
0.831599,0.403523,0.833155,0.835562
0.831515,0.403444,0.833072,0.835478
0.831432,0.403365,0.832989,0.835395
0.831349,0.403286,0.832905,0.835311
0.831266,0.403207,0.832822,0.835227
0.831183,0.403128,0.832739,0.835144
0.8311,0.403049,0.832655,0.83506
0.831017,0.402971,0.832572,0.834977
0.830934,0.402892,0.832489,0.834893
0.83085,0.402813,0.832406,0.83481
0.830767,0.402734,0.832322,0.834726
0.830684,0.402655,0.832239,0.834643
0.830601,0.402577,0.832156,0.834559
0.830518,0.402498,0.832073,0.834476
0.830435,0.402419,0.83199,0.834393
0.830352,0.402341,0.831906,0.834309
0.830269,0.402262,0.831823,0.834226
0.830186,0.402183,0.83174,0.834142
0.830103,0.402104,0.831657,0.834059
0.83002,0.402026,0.831574,0.833975
0.829937,0.401947,0.83149,0.833892
0.829854,0.401869,0.831407,0.833809
0.829771,0.40179,0.831324,0.833725
0.829688,0.401711,0.831241,0.833642
0.829605,0.401633,0.831158,0.833559
0.829522,0.401554,0.831075,0.833475
0.829439,0.401476,0.830992,0.833392
0.829356,0.401397,0.830909,0.833309
0.829273,0.401319,0.830826,0.833225
0.82919,0.40124,0.830742,0.833142
0.829107,0.401162,0.830659,0.833059
0.829024,0.401083,0.830576,0.832975
0.828942,0.401005,0.830493,0.832892
0.828859,0.400926,0.83041,0.832809
0.828776,0.400848,0.830327,0.832725
0.828693,0.40077,0.830244,0.832642
0.82861,0.400691,0.830161,0.832559
0.828527,0.400613,0.830078,0.832476
0.828444,0.400534,0.829995,0.832392
0.828362,0.400456,0.829912,0.832309
0.828279,0.400378,0.829829,0.832226
0.828196,0.400299,0.829746,0.832143
0.828113,0.400221,0.829663,0.832059
0.82803,0.400143,0.82958,0.831976
0.827947,0.400065,0.829497,0.831893
0.827865,0.399986,0.829414,0.83181
0.827782,0.399908,0.829331,0.831727
0.827699,0.39983,0.829248,0.831643
0.827616,0.399752,0.829165,0.83156
0.827534,0.399674,0.829083,0.831477
0.827451,0.399595,0.829,0.831394
0.827368,0.399517,0.828917,0.831311
0.827285,0.399439,0.828834,0.831228
0.827203,0.399361,0.828751,0.831145
0.82712,0.399283,0.828668,0.831062
0.827037,0.399205,0.828585,0.830978
0.826954,0.399127,0.828502,0.830895
0.826872,0.399049,0.828419,0.830812
0.826789,0.398971,0.828337,0.830729
0.826706,0.398893,0.828254,0.830646
0.826624,0.398815,0.828171,0.830563
0.826541,0.398737,0.828088,0.83048
0.826458,0.398659,0.828005,0.830397
0.826376,0.398581,0.827923,0.830314
0.826293,0.398503,0.82784,0.830231
0.82621,0.398425,0.827757,0.830148
0.826128,0.398347,0.827674,0.830065
0.826045,0.398269,0.827591,0.829982
0.825963,0.398191,0.827509,0.829899
0.82588,0.398113,0.827426,0.829816
0.825797,0.398035,0.827343,0.829733
0.825715,0.397957,0.82726,0.82965
0.825632,0.397879,0.827178,0.829567
0.82555,0.397802,0.827095,0.829484
0.825467,0.397724,0.827012,0.829401
0.825385,0.397646,0.82693,0.829318
0.825302,0.397568,0.826847,0.829235
0.82522,0.397491,0.826764,0.829152
0.825137,0.397413,0.826682,0.829069
0.825055,0.397335,0.826599,0.828986
0.824972,0.397257,0.826516,0.828903
0.82489,0.39718,0.826434,0.828821
0.824807,0.397102,0.826351,0.828738
0.824725,0.397024,0.826268,0.828655
0.824642,0.396947,0.826186,0.828572
0.82456,0.396869,0.826103,0.828489
0.824477,0.396791,0.82602,0.828406
0.824395,0.396714,0.825938,0.828323
0.824312,0.396636,0.825855,0.828241
0.82423,0.396559,0.825773,0.828158
0.824147,0.396481,0.82569,0.828075
0.824065,0.396404,0.825608,0.827992
0.823983,0.396326,0.825525,0.827909
0.8239,0.396248,0.825442,0.827827
0.823818,0.396171,0.82536,0.827744
0.823735,0.396093,0.825277,0.827661
0.823653,0.396016,0.825195,0.827578
0.823571,0.395939,0.825112,0.827495
0.823488,0.395861,0.82503,0.827413
0.823406,0.395784,0.824947,0.82733
0.823324,0.395706,0.824865,0.827247
0.823241,0.395629,0.824782,0.827164
0.823159,0.395552,0.8247,0.827082
0.823077,0.395474,0.824617,0.826999
0.822994,0.395397,0.824535,0.826916
0.822912,0.395319,0.824452,0.826834
0.82283,0.395242,0.82437,0.826751
0.822747,0.395165,0.824288,0.826668
0.822665,0.395088,0.824205,0.826586
0.822583,0.39501,0.824123,0.826503
0.822501,0.394933,0.82404,0.82642
0.822418,0.394856,0.823958,0.826338
0.822336,0.394779,0.823875,0.826255
0.822254,0.394701,0.823793,0.826172
0.822172,0.394624,0.823711,0.82609
0.82209,0.394547,0.823628,0.826007
0.822007,0.39447,0.823546,0.825925
0.821925,0.394393,0.823464,0.825842
0.821843,0.394315,0.823381,0.825759
0.821761,0.394238,0.823299,0.825677
0.821679,0.394161,0.823217,0.825594
0.821596,0.394084,0.823134,0.825512
0.821514,0.394007,0.823052,0.825429
0.821432,0.39393,0.82297,0.825347
0.82135,0.393853,0.822887,0.825264
0.821268,0.393776,0.822805,0.825182
0.821186,0.393699,0.822723,0.825099
0.821104,0.393622,0.822641,0.825017
0.821021,0.393545,0.822558,0.824934
0.820939,0.393468,0.822476,0.824852
0.820857,0.393391,0.822394,0.824769
0.820775,0.393314,0.822312,0.824687
0.820693,0.393237,0.822229,0.824604
0.820611,0.39316,0.822147,0.824522
0.820529,0.393083,0.822065,0.824439
0.820447,0.393006,0.821983,0.824357
0.820365,0.39293,0.8219,0.824274
0.820283,0.392853,0.821818,0.824192
0.820201,0.392776,0.821736,0.824109
0.820119,0.392699,0.821654,0.824027
0.820037,0.392622,0.821572,0.823945
0.819955,0.392545,0.82149,0.823862
0.819873,0.392469,0.821407,0.82378
0.819791,0.392392,0.821325,0.823698
0.819709,0.392315,0.821243,0.823615
0.819627,0.392238,0.821161,0.823533
0.819545,0.392162,0.821079,0.82345
0.819463,0.392085,0.820997,0.823368
0.819381,0.392008,0.820915,0.823286
0.819299,0.391932,0.820833,0.823203
0.819217,0.391855,0.820751,0.823121
0.819135,0.391778,0.820668,0.823039
0.819053,0.391702,0.820586,0.822956
0.818971,0.391625,0.820504,0.822874
0.818889,0.391549,0.820422,0.822792
0.818808,0.391472,0.82034,0.82271
0.818726,0.391395,0.820258,0.822627
0.818644,0.391319,0.820176,0.822545
0.818562,0.391242,0.820094,0.822463
0.81848,0.391166,0.820012,0.822381
0.818398,0.391089,0.81993,0.822298
0.818316,0.391013,0.819848,0.822216
0.818235,0.390936,0.819766,0.822134
0.818153,0.39086,0.819684,0.822052
0.818071,0.390783,0.819602,0.821969
0.817989,0.390707,0.81952,0.821887
0.817907,0.390631,0.819438,0.821805
0.817826,0.390554,0.819356,0.821723
0.817744,0.390478,0.819274,0.821641
0.817662,0.390401,0.819193,0.821559
0.81758,0.390325,0.819111,0.821476
0.817498,0.390249,0.819029,0.821394
0.817417,0.390172,0.818947,0.821312
0.817335,0.390096,0.818865,0.82123
0.817253,0.39002,0.818783,0.821148
0.817171,0.389943,0.818701,0.821066
0.81709,0.389867,0.818619,0.820984
0.817008,0.389791,0.818537,0.820902
0.816926,0.389715,0.818456,0.820819
0.816845,0.389638,0.818374,0.820737
0.816763,0.389562,0.818292,0.820655
0.816681,0.389486,0.81821,0.820573
0.8166,0.38941,0.818128,0.820491
0.816518,0.389334,0.818046,0.820409
0.816436,0.389258,0.817965,0.820327
0.816355,0.389181,0.817883,0.820245
0.816273,0.389105,0.817801,0.820163
0.816191,0.389029,0.817719,0.820081
0.81611,0.388953,0.817637,0.819999
0.816028,0.388877,0.817556,0.819917
0.815947,0.388801,0.817474,0.819835
0.815865,0.388725,0.817392,0.819753
0.815783,0.388649,0.81731,0.819671
0.815702,0.388573,0.817229,0.819589
0.81562,0.388497,0.817147,0.819507
0.815539,0.388421,0.817065,0.819425
0.815457,0.388345,0.816984,0.819343
0.815376,0.388269,0.816902,0.819261
0.815294,0.388193,0.81682,0.819179
0.815213,0.388117,0.816738,0.819097
0.815131,0.388041,0.816657,0.819016
0.81505,0.387965,0.816575,0.818934
0.814968,0.387889,0.816493,0.818852
0.814886,0.387814,0.816412,0.81877
0.814805,0.387738,0.81633,0.818688
0.814724,0.387662,0.816249,0.818606
0.814642,0.387586,0.816167,0.818524
0.814561,0.38751,0.816085,0.818442
0.814479,0.387434,0.816004,0.818361
0.814398,0.387359,0.815922,0.818279
0.814316,0.387283,0.815841,0.818197
0.814235,0.387207,0.815759,0.818115
0.814153,0.387131,0.815677,0.818033
0.814072,0.387056,0.815596,0.817951
0.813991,0.38698,0.815514,0.81787
0.813909,0.386904,0.815433,0.817788
0.813828,0.386829,0.815351,0.817706
0.813746,0.386753,0.81527,0.817624
0.813665,0.386677,0.815188,0.817543
0.813584,0.386602,0.815107,0.817461
0.813502,0.386526,0.815025,0.817379
0.813421,0.386451,0.814944,0.817297
0.81334,0.386375,0.814862,0.817216
0.813258,0.386299,0.814781,0.817134
0.813177,0.386224,0.814699,0.817052
0.813096,0.386148,0.814618,0.81697
0.813014,0.386073,0.814536,0.816889
0.812933,0.385997,0.814455,0.816807
0.812852,0.385922,0.814373,0.816725
0.81277,0.385846,0.814292,0.816644
0.812689,0.385771,0.81421,0.816562
0.812608,0.385695,0.814129,0.81648
0.812527,0.38562,0.814048,0.816399
0.812445,0.385544,0.813966,0.816317
0.812364,0.385469,0.813885,0.816235
0.812283,0.385394,0.813803,0.816154
0.812202,0.385318,0.813722,0.816072
0.81212,0.385243,0.813641,0.815991
0.812039,0.385168,0.813559,0.815909
0.811958,0.385092,0.813478,0.815827
0.811877,0.385017,0.813397,0.815746
0.811796,0.384942,0.813315,0.815664
0.811714,0.384866,0.813234,0.815583
0.811633,0.384791,0.813153,0.815501
0.811552,0.384716,0.813071,0.81542
0.811471,0.384641,0.81299,0.815338
0.81139,0.384565,0.812909,0.815257
0.811309,0.38449,0.812827,0.815175
0.811228,0.384415,0.812746,0.815094
0.811146,0.38434,0.812665,0.815012
0.811065,0.384265,0.812584,0.81493
0.810984,0.384189,0.812502,0.814849
0.810903,0.384114,0.812421,0.814768
0.810822,0.384039,0.81234,0.814686
0.810741,0.383964,0.812259,0.814605
0.81066,0.383889,0.812177,0.814523
0.810579,0.383814,0.812096,0.814442
0.810498,0.383739,0.812015,0.81436
0.810417,0.383664,0.811934,0.814279
0.810336,0.383589,0.811852,0.814197
0.810255,0.383514,0.811771,0.814116
0.810174,0.383439,0.81169,0.814035
0.810093,0.383364,0.811609,0.813953
0.810012,0.383289,0.811528,0.813872
0.809931,0.383214,0.811447,0.81379
0.80985,0.383139,0.811365,0.813709
0.809769,0.383064,0.811284,0.813628
0.809688,0.382989,0.811203,0.813546
0.809607,0.382914,0.811122,0.813465
0.809526,0.382839,0.811041,0.813384
0.809445,0.382764,0.81096,0.813302
0.809364,0.382689,0.810879,0.813221
0.809283,0.382614,0.810798,0.81314
0.809202,0.38254,0.810717,0.813058
0.809121,0.382465,0.810636,0.812977
0.80904,0.38239,0.810554,0.812896
0.808959,0.382315,0.810473,0.812814
0.808878,0.38224,0.810392,0.812733
0.808797,0.382166,0.810311,0.812652
0.808717,0.382091,0.81023,0.812571
0.808636,0.382016,0.810149,0.812489
0.808555,0.381941,0.810068,0.812408
0.808474,0.381867,0.809987,0.812327
0.808393,0.381792,0.809906,0.812246
0.808312,0.381717,0.809825,0.812164
0.808231,0.381643,0.809744,0.812083
0.808151,0.381568,0.809663,0.812002
0.80807,0.381493,0.809582,0.811921
0.807989,0.381419,0.809501,0.811839
0.807908,0.381344,0.80942,0.811758
0.807827,0.38127,0.80934,0.811677
0.807747,0.381195,0.809259,0.811596
0.807666,0.381121,0.809178,0.811515
0.807585,0.381046,0.809097,0.811434
0.807504,0.380971,0.809016,0.811353
0.807424,0.380897,0.808935,0.811271
0.807343,0.380822,0.808854,0.81119
0.807262,0.380748,0.808773,0.811109
0.807181,0.380674,0.808692,0.811028
0.807101,0.380599,0.808611,0.810947
0.80702,0.380525,0.808531,0.810866
0.806939,0.38045,0.80845,0.810785
0.806859,0.380376,0.808369,0.810704
0.806778,0.380301,0.808288,0.810623
0.806697,0.380227,0.808207,0.810542
0.806616,0.380153,0.808126,0.81046
0.806536,0.380078,0.808046,0.810379
0.806455,0.380004,0.807965,0.810298
0.806375,0.37993,0.807884,0.810217
0.806294,0.379855,0.807803,0.810136
0.806213,0.379781,0.807722,0.810055
0.806133,0.379707,0.807642,0.809974
0.806052,0.379632,0.807561,0.809893
0.805971,0.379558,0.80748,0.809812
0.805891,0.379484,0.807399,0.809731
0.80581,0.37941,0.807319,0.80965
0.80573,0.379336,0.807238,0.809569
0.805649,0.379261,0.807157,0.809488
0.805569,0.379187,0.807076,0.809407
0.805488,0.379113,0.806996,0.809327
0.805407,0.379039,0.806915,0.809246
0.805327,0.378965,0.806834,0.809165
0.805246,0.378891,0.806754,0.809084
0.805166,0.378817,0.806673,0.809003
0.805085,0.378742,0.806592,0.808922
0.805005,0.378668,0.806512,0.808841
0.804924,0.378594,0.806431,0.80876
0.804844,0.37852,0.80635,0.808679
0.804763,0.378446,0.80627,0.808598
0.804683,0.378372,0.806189,0.808518
0.804602,0.378298,0.806108,0.808437
0.804522,0.378224,0.806028,0.808356
0.804441,0.37815,0.805947,0.808275
0.804361,0.378076,0.805867,0.808194
0.804281,0.378002,0.805786,0.808113
0.8042,0.377928,0.805705,0.808033
0.80412,0.377854,0.805625,0.807952
0.804039,0.377781,0.805544,0.807871
0.803959,0.377707,0.805464,0.80779
0.803879,0.377633,0.805383,0.807709
0.803798,0.377559,0.805303,0.807629
0.803718,0.377485,0.805222,0.807548
0.803637,0.377411,0.805142,0.807467
0.803557,0.377337,0.805061,0.807386
0.803477,0.377264,0.804981,0.807306
0.803396,0.37719,0.8049,0.807225
0.803316,0.377116,0.80482,0.807144
0.803236,0.377042,0.804739,0.807063
0.803155,0.376969,0.804659,0.806983
0.803075,0.376895,0.804578,0.806902
0.802995,0.376821,0.804498,0.806821
0.802914,0.376747,0.804417,0.806741
0.802834,0.376674,0.804337,0.80666
0.802754,0.3766,0.804256,0.806579
0.802674,0.376526,0.804176,0.806499
0.802593,0.376453,0.804096,0.806418
0.802513,0.376379,0.804015,0.806337
0.802433,0.376306,0.803935,0.806257
0.802353,0.376232,0.803854,0.806176
0.802272,0.376158,0.803774,0.806096
0.802192,0.376085,0.803694,0.806015
0.802112,0.376011,0.803613,0.805934
0.802032,0.375938,0.803533,0.805854
0.801951,0.375864,0.803453,0.805773
0.801871,0.375791,0.803372,0.805693
0.801791,0.375717,0.803292,0.805612
0.801711,0.375644,0.803212,0.805531
0.801631,0.37557,0.803131,0.805451
0.801551,0.375497,0.803051,0.80537
0.80147,0.375423,0.802971,0.80529
0.80139,0.37535,0.80289,0.805209
0.80131,0.375276,0.80281,0.805129
0.80123,0.375203,0.80273,0.805048
0.80115,0.37513,0.802649,0.804968
0.80107,0.375056,0.802569,0.804887
0.80099,0.374983,0.802489,0.804807
0.80091,0.37491,0.802409,0.804726
0.800829,0.374836,0.802328,0.804646
0.800749,0.374763,0.802248,0.804565
0.800669,0.37469,0.802168,0.804485
0.800589,0.374616,0.802088,0.804404
0.800509,0.374543,0.802008,0.804324
0.800429,0.37447,0.801927,0.804244
0.800349,0.374397,0.801847,0.804163
0.800269,0.374323,0.801767,0.804083
0.800189,0.37425,0.801687,0.804002
0.800109,0.374177,0.801607,0.803922
0.800029,0.374104,0.801526,0.803842
0.799949,0.374031,0.801446,0.803761
0.799869,0.373957,0.801366,0.803681
0.799789,0.373884,0.801286,0.8036
0.799709,0.373811,0.801206,0.80352
0.799629,0.373738,0.801126,0.80344
0.799549,0.373665,0.801046,0.803359
0.799469,0.373592,0.800966,0.803279
0.799389,0.373519,0.800885,0.803199
0.799309,0.373446,0.800805,0.803118
0.799229,0.373373,0.800725,0.803038
0.799149,0.3733,0.800645,0.802958
0.799069,0.373227,0.800565,0.802877
0.79899,0.373154,0.800485,0.802797
0.79891,0.373081,0.800405,0.802717
0.79883,0.373008,0.800325,0.802637
0.79875,0.372935,0.800245,0.802556
0.79867,0.372862,0.800165,0.802476
0.79859,0.372789,0.800085,0.802396
0.79851,0.372716,0.800005,0.802316
0.79843,0.372643,0.799925,0.802235
0.798351,0.37257,0.799845,0.802155
0.798271,0.372497,0.799765,0.802075
0.798191,0.372424,0.799685,0.801995
0.798111,0.372352,0.799605,0.801915
0.798031,0.372279,0.799525,0.801834
0.797951,0.372206,0.799445,0.801754
0.797872,0.372133,0.799365,0.801674
0.797792,0.37206,0.799285,0.801594
0.797712,0.371988,0.799205,0.801514
0.797632,0.371915,0.799125,0.801433
0.797553,0.371842,0.799045,0.801353
0.797473,0.371769,0.798966,0.801273
0.797393,0.371697,0.798886,0.801193
0.797313,0.371624,0.798806,0.801113
0.797234,0.371551,0.798726,0.801033
0.797154,0.371479,0.798646,0.800953
0.797074,0.371406,0.798566,0.800873
0.796994,0.371333,0.798486,0.800793
0.796915,0.371261,0.798406,0.800712
0.796835,0.371188,0.798327,0.800632
0.796755,0.371115,0.798247,0.800552
0.796676,0.371043,0.798167,0.800472
0.796596,0.37097,0.798087,0.800392
0.796516,0.370898,0.798007,0.800312
0.796437,0.370825,0.797928,0.800232
0.796357,0.370753,0.797848,0.800152
0.796277,0.37068,0.797768,0.800072
0.796198,0.370608,0.797688,0.799992
0.796118,0.370535,0.797608,0.799912
0.796039,0.370463,0.797529,0.799832
0.795959,0.37039,0.797449,0.799752
0.795879,0.370318,0.797369,0.799672
0.7958,0.370245,0.797289,0.799592
0.79572,0.370173,0.79721,0.799512
0.795641,0.370101,0.79713,0.799432
0.795561,0.370028,0.79705,0.799352
0.795482,0.369956,0.796971,0.799272
0.795402,0.369883,0.796891,0.799193
0.795322,0.369811,0.796811,0.799113
0.795243,0.369739,0.796731,0.799033
0.795163,0.369666,0.796652,0.798953
0.795084,0.369594,0.796572,0.798873
0.795004,0.369522,0.796492,0.798793
0.794925,0.36945,0.796413,0.798713
0.794845,0.369377,0.796333,0.798633
0.794766,0.369305,0.796254,0.798553
0.794686,0.369233,0.796174,0.798474
0.794607,0.369161,0.796094,0.798394
0.794527,0.369088,0.796015,0.798314
0.794448,0.369016,0.795935,0.798234
0.794369,0.368944,0.795856,0.798154
0.794289,0.368872,0.795776,0.798074
0.79421,0.3688,0.795696,0.797995
0.79413,0.368728,0.795617,0.797915
0.794051,0.368656,0.795537,0.797835
0.793971,0.368583,0.795458,0.797755
0.793892,0.368511,0.795378,0.797675
0.793813,0.368439,0.795299,0.797596
0.793733,0.368367,0.795219,0.797516
0.793654,0.368295,0.79514,0.797436
0.793575,0.368223,0.79506,0.797356
0.793495,0.368151,0.794981,0.797277
0.793416,0.368079,0.794901,0.797197
0.793337,0.368007,0.794822,0.797117
0.793257,0.367935,0.794742,0.797037
0.793178,0.367863,0.794663,0.796958
0.793099,0.367791,0.794583,0.796878
0.793019,0.367719,0.794504,0.796798
0.79294,0.367647,0.794424,0.796719
0.792861,0.367575,0.794345,0.796639
0.792781,0.367504,0.794265,0.796559
0.792702,0.367432,0.794186,0.79648
0.792623,0.36736,0.794106,0.7964
0.792544,0.367288,0.794027,0.79632
0.792464,0.367216,0.793948,0.796241
0.792385,0.367144,0.793868,0.796161
0.792306,0.367072,0.793789,0.796082
0.792227,0.367001,0.793709,0.796002
0.792147,0.366929,0.79363,0.795922
0.792068,0.366857,0.793551,0.795843
0.791989,0.366785,0.793471,0.795763
0.79191,0.366714,0.793392,0.795684
0.791831,0.366642,0.793313,0.795604
0.791751,0.36657,0.793233,0.795524
0.791672,0.366499,0.793154,0.795445
0.791593,0.366427,0.793075,0.795365
0.791514,0.366355,0.792995,0.795286
0.791435,0.366284,0.792916,0.795206
0.791356,0.366212,0.792837,0.795127
0.791276,0.36614,0.792758,0.795047
0.791197,0.366069,0.792678,0.794968
0.791118,0.365997,0.792599,0.794888
0.791039,0.365925,0.79252,0.794809
0.79096,0.365854,0.792441,0.794729
0.790881,0.365782,0.792361,0.79465
0.790802,0.365711,0.792282,0.79457
0.790723,0.365639,0.792203,0.794491
0.790644,0.365568,0.792124,0.794411
0.790565,0.365496,0.792044,0.794332
0.790486,0.365425,0.791965,0.794253
0.790406,0.365353,0.791886,0.794173
0.790327,0.365282,0.791807,0.794094
0.790248,0.36521,0.791728,0.794014
0.790169,0.365139,0.791648,0.793935
0.79009,0.365068,0.791569,0.793856
0.790011,0.364996,0.79149,0.793776
0.789932,0.364925,0.791411,0.793697
0.789853,0.364853,0.791332,0.793617
0.789774,0.364782,0.791253,0.793538
0.789695,0.364711,0.791174,0.793459
0.789616,0.364639,0.791094,0.793379
0.789537,0.364568,0.791015,0.7933
0.789458,0.364497,0.790936,0.793221
0.78938,0.364425,0.790857,0.793141
0.789301,0.364354,0.790778,0.793062
