energy,productivity,fun,hunger
0.576887,0.673301,0.731834,0.508235
0.57683,0.673227,0.731761,0.508184
0.576484,0.673154,0.731688,0.508134
0.576138,0.67308,0.731614,0.508083
0.575792,0.673007,0.731541,0.508032
0.575447,0.672934,0.731468,0.507981
0.575101,0.67286,0.731395,0.50793
0.574756,0.672787,0.731322,0.50788
0.574412,0.672713,0.731249,0.507829
0.574067,0.67264,0.731176,0.507778
0.573723,0.672567,0.731102,0.507727
0.573378,0.672493,0.731029,0.507676
0.573034,0.67242,0.730956,0.507626
0.572691,0.672347,0.730883,0.507575
0.572347,0.672273,0.73081,0.507524
0.572004,0.6722,0.730737,0.507473
0.57166,0.672127,0.730664,0.507423
0.571318,0.672054,0.730591,0.507372
0.570975,0.67198,0.730518,0.507321
0.570632,0.671907,0.730445,0.50727
0.57029,0.671834,0.730372,0.50722
0.569948,0.67176,0.730299,0.507169
0.569606,0.671687,0.730226,0.507118
0.569264,0.671614,0.730153,0.507068
0.568922,0.671541,0.73008,0.507017
0.568581,0.671467,0.730007,0.506966
0.56824,0.671394,0.729934,0.506915
0.567899,0.671321,0.729861,0.506865
0.567558,0.671248,0.729788,0.506814
0.567218,0.671175,0.729715,0.506763
0.566878,0.671101,0.729642,0.506713
0.566538,0.671028,0.729569,0.506662
0.566198,0.670955,0.729496,0.506611
0.565858,0.670882,0.729423,0.506561
0.565518,0.670809,0.72935,0.50651
0.565179,0.670736,0.729277,0.506459
0.56484,0.670662,0.729204,0.506409
0.564501,0.670589,0.729131,0.506358
0.564163,0.670516,0.729058,0.506308
0.563824,0.670443,0.728985,0.506257
0.563486,0.67037,0.728912,0.506206
0.563148,0.670297,0.728839,0.506156
0.56281,0.670224,0.728767,0.506105
0.562472,0.670151,0.728694,0.506054
0.562135,0.670078,0.728621,0.506004
0.561797,0.670005,0.728548,0.505953
0.56146,0.669931,0.728475,0.505903
0.561124,0.669858,0.728402,0.505852
0.560787,0.669785,0.728329,0.505801
0.560451,0.669712,0.728257,0.505751
0.560114,0.669639,0.728184,0.5057
0.559778,0.669566,0.728111,0.50565
0.559442,0.669493,0.728038,0.505599
0.559107,0.66942,0.727965,0.505549
0.558771,0.669347,0.727893,0.505498
0.558436,0.669274,0.72782,0.505447
0.558101,0.669201,0.727747,0.505397
0.557766,0.669128,0.727674,0.505346
0.557432,0.669055,0.727601,0.505296
0.557097,0.668982,0.727529,0.505245
0.556484,0.669578,0.726001,0.505195
0.555872,0.670175,0.724477,0.505144
0.555261,0.670772,0.722955,0.505094
0.55465,0.671369,0.721437,0.505043
0.55404,0.671967,0.719922,0.504993
0.553431,0.672566,0.718411,0.504942
0.552822,0.673165,0.716902,0.504892
0.552214,0.673765,0.715397,0.504841
0.551607,0.674365,0.713895,0.504791
0.551,0.674966,0.712396,0.50474
0.550394,0.675567,0.7109,0.50469
0.549788,0.676169,0.709407,0.504639
0.549184,0.676771,0.707917,0.504589
0.54858,0.677374,0.706431,0.504538
0.547976,0.677978,0.704947,0.504488
0.547374,0.678582,0.703467,0.504438
0.546772,0.679186,0.70199,0.504387
0.54617,0.679791,0.700516,0.504337
0.545569,0.680397,0.699045,0.504286
0.544969,0.681003,0.697577,0.504236
0.54437,0.68161,0.696112,0.504185
0.543771,0.682217,0.694651,0.504135
0.543173,0.682825,0.693192,0.504085
0.542576,0.683433,0.691737,0.504034
0.541979,0.684042,0.690284,0.503984
0.541383,0.684651,0.688835,0.503933
0.540787,0.685261,0.687388,0.503883
0.540192,0.685871,0.685945,0.503833
0.539598,0.686482,0.684504,0.503782
0.539005,0.687094,0.683067,0.503732
0.538412,0.687706,0.681633,0.503681
0.53782,0.688319,0.680202,0.503631
0.537228,0.688932,0.678773,0.503581
0.536637,0.689546,0.677348,0.50353
0.536047,0.69016,0.675926,0.50348
0.535457,0.690775,0.674506,0.50343
0.534869,0.69139,0.67309,0.503379
0.53428,0.692006,0.671677,0.503329
0.533693,0.692622,0.670266,0.503279
0.533106,0.693239,0.668859,0.503228
0.532519,0.693857,0.667454,0.503178
0.531933,0.694475,0.666053,0.503128
0.531348,0.695094,0.664654,0.503077
0.530764,0.695713,0.663259,0.503027
0.53018,0.696333,0.661866,0.502977
0.529597,0.696953,0.660476,0.502926
0.529015,0.697574,0.659089,0.502876
0.528433,0.698195,0.657705,0.502826
0.527851,0.698817,0.656324,0.502776
0.527271,0.69944,0.654946,0.502725
0.526691,0.700063,0.653571,0.502675
0.526112,0.700687,0.652199,0.502625
0.525533,0.701311,0.650829,0.502574
0.524955,0.701936,0.649462,0.502524
0.524378,0.702561,0.648099,0.502474
0.523801,0.703187,0.646738,0.502424
0.523225,0.703813,0.64538,0.502373
0.522649,0.70444,0.644025,0.502323
0.522074,0.705068,0.642672,0.502273
0.5215,0.705696,0.641323,0.502223
0.520926,0.706325,0.639976,0.502173
0.520353,0.706954,0.638632,0.502122
0.519781,0.707584,0.637291,0.502072
0.519209,0.708214,0.635953,0.502022
0.518638,0.708845,0.634618,0.501972
0.518068,0.709476,0.633285,0.501922
0.517498,0.710108,0.631955,0.501871
0.516929,0.710741,0.630628,0.501821
0.51636,0.711374,0.629304,0.501771
0.515792,0.712008,0.627983,0.501721
0.515225,0.712642,0.626664,0.501671
0.514658,0.713277,0.625348,0.50162
0.514092,0.713912,0.624035,0.50157
0.513527,0.714548,0.622725,0.50152
0.512962,0.715185,0.621417,0.50147
0.512398,0.715822,0.620112,0.50142
0.511834,0.71646,0.61881,0.50137
0.511271,0.717098,0.617511,0.50132
0.510709,0.717737,0.616214,0.501269
0.510147,0.718376,0.61492,0.501219
0.509586,0.719016,0.613629,0.501169
0.509026,0.719657,0.612341,0.501119
0.508466,0.720298,0.611055,0.501069
0.507906,0.720939,0.609772,0.501019
0.507348,0.721582,0.608491,0.500969
0.50679,0.722224,0.607214,0.500919
0.506232,0.722868,0.605939,0.500869
0.505676,0.723512,0.604666,0.500818
0.505119,0.724156,0.603397,0.500768
0.504564,0.724801,0.60213,0.500718
0.504009,0.725447,0.600865,0.500668
0.503454,0.726093,0.599604,0.500618
0.502901,0.72674,0.598344,0.500568
0.502348,0.727388,0.597088,0.500518
0.501795,0.728036,0.595834,0.500468
0.501243,0.728684,0.594583,0.500418
0.500692,0.729333,0.593335,0.500368
0.500141,0.729983,0.592089,0.500318
0.499591,0.730633,0.590846,0.500268
0.499041,0.731284,0.589605,0.500218
0.498493,0.731936,0.588367,0.500168
0.497944,0.732588,0.587131,0.500118
0.497397,0.73324,0.585899,0.500068
0.496849,0.733894,0.584668,0.500018
0.496303,0.734547,0.583441,0.499968
0.495757,0.735202,0.582215,0.499918
0.495212,0.735857,0.580993,0.499868
0.494667,0.736512,0.579773,0.499818
0.494123,0.737168,0.578556,0.499768
0.49358,0.737825,0.577341,0.499718
0.493037,0.738482,0.576128,0.499668
0.492494,0.73914,0.574919,0.499618
0.491953,0.739799,0.573711,0.499568
0.491412,0.740458,0.572507,0.499518
0.490871,0.741117,0.571305,0.499468
0.490331,0.741777,0.570105,0.499418
0.489792,0.742438,0.568908,0.499368
0.489253,0.7431,0.567713,0.499318
0.488715,0.743762,0.566521,0.499268
0.488177,0.744424,0.565332,0.499218
0.487641,0.745087,0.564145,0.499168
0.487104,0.745751,0.56296,0.499118
0.486568,0.746415,0.561778,0.499069
0.486033,0.74708,0.560598,0.499019
0.485499,0.747746,0.559421,0.498969
0.48545,0.747664,0.559365,0.498919
0.485402,0.747583,0.576088,0.498869
0.48511,0.747501,0.593312,0.498819
0.484819,0.74742,0.61105,0.498769
0.484528,0.747338,0.629319,0.498719
0.484238,0.747257,0.648133,0.498669
0.483947,0.747175,0.667511,0.49862
0.483657,0.747094,0.687467,0.49857
0.483367,0.747012,0.70802,0.49852
0.483077,0.746931,0.729188,0.49847
0.482787,0.746849,0.729115,0.49842
0.482497,0.746768,0.729042,0.49837
0.482208,0.746687,0.728969,0.498321
0.481918,0.746605,0.728896,0.498271
0.481629,0.746524,0.728823,0.498221
0.48134,0.746442,0.728751,0.498171
0.481052,0.746361,0.728678,0.498121
0.480763,0.74628,0.728605,0.498071
0.480475,0.746198,0.728532,0.498022
0.480186,0.746117,0.728459,0.497972
0.479898,0.746035,0.728386,0.497922
0.47961,0.745954,0.728313,0.497872
0.479323,0.745873,0.728241,0.497822
0.479035,0.745791,0.728168,0.497773
0.478748,0.74571,0.728095,0.497723
0.47846,0.745629,0.728022,0.497673
0.478173,0.745547,0.727949,0.497623
0.477886,0.745466,0.727877,0.497574
0.4776,0.745385,0.727804,0.497524
0.477313,0.745304,0.727731,0.497474
0.477027,0.745222,0.727658,0.497424
0.476741,0.745141,0.727585,0.497375
0.476693,0.74506,0.727513,0.497325
0.476645,0.744979,0.72744,0.497275
0.476598,0.744897,0.727367,0.497225
0.47655,0.744816,0.727294,0.497176
0.476502,0.744735,0.727222,0.497126
0.476455,0.744654,0.727149,0.497076
0.476407,0.744572,0.727076,0.497026
0.476359,0.744491,0.727004,0.496977
0.476312,0.74441,0.726931,0.496927
0.476264,0.744329,0.726858,0.496877
0.476216,0.744248,0.726786,0.496828
0.476169,0.744167,0.726713,0.496778
0.476121,0.744085,0.72664,0.496728
0.476074,0.744004,0.726568,0.496679
0.476026,0.743923,0.726495,0.496629
0.475978,0.743842,0.726422,0.496579
0.475931,0.743761,0.72635,0.49653
0.475883,0.74368,0.726277,0.49648
0.475836,0.743599,0.726204,0.49643
0.475788,0.743518,0.726132,0.496381
0.47574,0.743437,0.726059,0.496331
0.475693,0.743355,0.725986,0.496281
0.475645,0.743274,0.725914,0.496232
0.475598,0.743193,0.725841,0.496182
0.47555,0.743112,0.725769,0.496133
0.475503,0.743031,0.725696,0.496083
0.475455,0.74295,0.725624,0.496033
0.475408,0.742869,0.725551,0.495984
0.47536,0.742788,0.725478,0.495934
0.475312,0.742707,0.725406,0.495885
0.475265,0.742626,0.725333,0.495835
0.475217,0.742545,0.725261,0.495785
0.47517,0.742464,0.725188,0.495736
0.475122,0.742383,0.725116,0.495686
0.475075,0.742302,0.725043,0.495637
0.475027,0.742221,0.724971,0.495587
0.47498,0.74214,0.724898,0.495538
0.474932,0.742059,0.724826,0.495488
0.474885,0.741979,0.724753,0.495438
0.474837,0.741898,0.724681,0.495389
0.47479,0.741817,0.724608,0.495339
0.474742,0.741736,0.724536,0.49529
0.474695,0.741655,0.724463,0.49524
0.474647,0.741574,0.724391,0.495191
0.4746,0.741493,0.724319,0.495141
0.474553,0.741412,0.724246,0.495092
0.474505,0.741332,0.724174,0.495042
0.474458,0.741251,0.724101,0.494993
0.47441,0.74117,0.724029,0.494943
0.474363,0.741089,0.723956,0.494894
0.474315,0.741008,0.723884,0.494844
0.474268,0.740927,0.723812,0.494795
0.47422,0.740847,0.723739,0.494745
0.474173,0.740766,0.723667,0.494696
0.474126,0.740685,0.723595,0.494646
0.474078,0.740604,0.723522,0.494597
0.474031,0.740524,0.72345,0.494547
0.473983,0.740443,0.723377,0.494498
0.473936,0.740362,0.723305,0.494449
0.473889,0.740281,0.723233,0.494399
0.473841,0.740201,0.72316,0.49435
0.473794,0.74012,0.723088,0.4943
0.473746,0.740039,0.723016,0.494251
0.473699,0.739958,0.722944,0.494201
0.473652,0.739878,0.722871,0.494152
0.473604,0.739797,0.722799,0.494103
0.473557,0.739716,0.722727,0.494053
0.47351,0.739636,0.722654,0.494004
0.473462,0.739555,0.722582,0.493954
0.473415,0.739474,0.72251,0.493905
0.473131,0.739394,0.722438,0.493856
0.472847,0.739313,0.722365,0.493806
0.472563,0.739233,0.722293,0.493757
0.47228,0.739152,0.722221,0.493707
0.471996,0.739071,0.722149,0.493658
0.471713,0.738991,0.722077,0.493609
0.47143,0.73891,0.722004,0.493559
0.471147,0.73883,0.721932,0.49351
0.470865,0.738749,0.72186,0.493461
0.470582,0.738668,0.721788,0.493411
0.4703,0.738588,0.721716,0.493362
0.470018,0.738507,0.721643,0.493313
0.469736,0.738427,0.721571,0.493263
0.469454,0.738346,0.721499,0.493214
0.469172,0.738266,0.721427,0.493165
0.468891,0.738185,0.721355,0.493115
0.46861,0.738105,0.721283,0.493066
0.468328,0.738024,0.72121,0.493017
0.468047,0.737944,0.721138,0.492967
0.467767,0.737863,0.721066,0.492918
0.467486,0.737783,0.720994,0.492869
0.467206,0.737702,0.720922,0.492819
0.466925,0.737622,0.72085,0.49277
0.466645,0.737541,0.720778,0.492721
0.466365,0.737461,0.720706,0.492672
0.466085,0.737381,0.720634,0.492622
0.465806,0.7373,0.720562,0.492573
0.465526,0.73722,0.72049,0.492524
0.465247,0.737139,0.720418,0.492475
0.464968,0.737059,0.720346,0.492425
0.464689,0.736979,0.720273,0.492376
0.46441,0.736898,0.720201,0.492327
0.464132,0.736818,0.720129,0.492278
0.463853,0.736738,0.720057,0.492228
0.463575,0.736657,0.719985,0.492179
0.463297,0.736577,0.719913,0.49213
0.463019,0.736497,0.719841,0.492081
0.462741,0.736416,0.719769,0.492032
0.462463,0.736336,0.719697,0.491982
0.462186,0.736256,0.719625,0.491933
0.461909,0.736175,0.719554,0.491884
0.461631,0.736095,0.719482,0.491835
0.461354,0.736015,0.71941,0.491786
0.461078,0.735935,0.719338,0.491736
0.460801,0.735854,0.719266,0.491687
0.460525,0.735774,0.719194,0.491638
0.460248,0.735694,0.719122,0.491589
0.459972,0.735614,0.71905,0.49154
0.459696,0.735533,0.718978,0.491491
0.45942,0.735453,0.718906,0.491441
0.459374,0.735373,0.718834,0.491392
0.459329,0.735293,0.718762,0.491343
0.459283,0.735213,0.718691,0.491294
0.459237,0.735132,0.718619,0.491245
0.459191,0.735052,0.718547,0.491196
0.459145,0.734972,0.718475,0.491147
0.459099,0.734892,0.718403,0.491098
0.459053,0.734812,0.718331,0.491048
0.459007,0.734732,0.718259,0.490999
0.458961,0.734652,0.718188,0.49095
0.458915,0.734571,0.718116,0.490901
0.458869,0.734491,0.718044,0.490852
0.458824,0.734411,0.717972,0.490803
0.458778,0.734331,0.7179,0.490754
0.458732,0.734251,0.717829,0.490705
0.458686,0.734171,0.717757,0.490656
0.45864,0.734091,0.717685,0.490607
0.458594,0.734011,0.717613,0.490558
0.458548,0.733931,0.717542,0.490509
0.458502,0.733851,0.71747,0.490459
0.458457,0.733771,0.717398,0.49041
0.458411,0.733691,0.717326,0.490361
0.458365,0.733611,0.717255,0.490312
0.458319,0.733531,0.717183,0.490263
0.458273,0.733451,0.717111,0.490214
0.458227,0.733371,0.717039,0.490165
0.458182,0.733291,0.716968,0.490116
0.458136,0.733211,0.716896,0.490067
0.45809,0.733131,0.716824,0.490018
0.458044,0.733051,0.716753,0.489969
0.457998,0.732971,0.716681,0.48992
0.457953,0.732891,0.716609,0.489871
0.457907,0.732811,0.716538,0.489822
0.457861,0.732731,0.716466,0.489773
0.457815,0.732651,0.716394,0.489724
0.457769,0.732571,0.716323,0.489675
0.457724,0.732492,0.716251,0.489626
0.457678,0.732412,0.716179,0.489577
0.457632,0.732332,0.716108,0.489528
0.457586,0.732252,0.716036,0.489479
0.457541,0.732172,0.715965,0.489431
0.457495,0.732092,0.715893,0.489382
0.457449,0.732012,0.715821,0.489333
0.457403,0.731933,0.71575,0.489284
0.457358,0.731853,0.715678,0.489235
0.457312,0.731773,0.715607,0.489186
0.457266,0.731693,0.715535,0.489137
0.45722,0.731613,0.715464,0.489088
0.457175,0.731534,0.715392,0.489039
0.457129,0.731454,0.71532,0.48899
0.457083,0.731374,0.715249,0.488941
0.457038,0.731294,0.715177,0.488892
0.456992,0.731215,0.715106,0.488844
0.456946,0.731135,0.715034,0.488795
0.4569,0.731055,0.714963,0.488746
0.456855,0.730975,0.714891,0.488697
0.456809,0.730896,0.71482,0.488648
0.456763,0.730816,0.714748,0.488599
0.456718,0.730736,0.714677,0.48855
0.456672,0.730657,0.714605,0.488501
0.456626,0.730577,0.714534,0.488453
0.456444,0.731228,0.714177,0.488404
0.456261,0.731879,0.71382,0.488355
0.456079,0.732531,0.713463,0.488306
0.455896,0.733184,0.713106,0.488257
0.455714,0.733837,0.71275,0.488208
0.455532,0.734491,0.712393,0.48816
0.455349,0.735145,0.712037,0.488111
0.455167,0.7358,0.711681,0.488062
0.454985,0.736455,0.711325,0.488013
0.454803,0.737111,0.71097,0.487964
0.454621,0.737768,0.710614,0.487916
0.45444,0.738425,0.710259,0.487867
0.454258,0.739083,0.709904,0.487818
0.454076,0.739741,0.709549,0.487769
0.453894,0.7404,0.709194,0.48772
0.453713,0.74106,0.70884,0.487672
0.453531,0.74172,0.708485,0.487623
0.45335,0.742381,0.708131,0.487574
0.453169,0.743042,0.707777,0.487525
0.452987,0.743704,0.707423,0.487477
0.452806,0.744367,0.707069,0.487428
0.452625,0.74503,0.706716,0.487379
0.452444,0.745694,0.706363,0.48733
0.452263,0.746358,0.706009,0.487282
0.452082,0.747023,0.705656,0.487233
0.451901,0.747688,0.705304,0.487184
0.451721,0.748354,0.704951,0.487135
0.45154,0.749021,0.704599,0.487087
0.451359,0.749688,0.704246,0.487038
0.451179,0.750356,0.703894,0.486989
0.450998,0.751025,0.703542,0.486941
0.450818,0.751694,0.703191,0.486892
0.450638,0.752363,0.702839,0.486843
0.450457,0.753033,0.702488,0.486795
0.450277,0.753704,0.702136,0.486746
0.450097,0.754376,0.701785,0.486697
0.449917,0.755048,0.701434,0.486649
0.449737,0.75572,0.701084,0.4866
0.449557,0.756394,0.700733,0.486551
0.449378,0.757067,0.700383,0.486503
0.449198,0.757742,0.700033,0.486454
0.449018,0.758417,0.699683,0.486405
0.448839,0.759093,0.699333,0.486357
0.448659,0.759769,0.698983,0.486308
0.44848,0.760446,0.698634,0.486259
0.4483,0.761123,0.698285,0.486211
0.448121,0.761801,0.697935,0.486162
0.447942,0.76248,0.697586,0.486114
0.447762,0.763159,0.697238,0.486065
0.447583,0.763839,0.696889,0.486016
0.447404,0.764519,0.696541,0.485968
0.447225,0.7652,0.696192,0.485919
0.447047,0.765882,0.695844,0.485871
0.446868,0.766564,0.695497,0.485822
0.446689,0.767247,0.695149,0.485773
0.44651,0.767931,0.694801,0.485725
0.446332,0.768615,0.694454,0.485676
0.446153,0.769299,0.694107,0.485628
0.445975,0.769985,0.69376,0.485579
0.445796,0.770671,0.693413,0.485531
0.445618,0.771357,0.693066,0.485482
0.44544,0.772044,0.69272,0.485433
0.445262,0.772732,0.692373,0.485385
0.445084,0.773421,0.692027,0.485336
0.444906,0.77411,0.691681,0.485288
0.444728,0.774799,0.691335,0.485239
0.44455,0.775489,0.69099,0.485191
0.444372,0.77618,0.690644,0.485142
0.444194,0.776872,0.690299,0.485094
0.444017,0.777564,0.689954,0.485045
0.443839,0.778256,0.689609,0.484997
0.443661,0.77895,0.689264,0.484948
0.443484,0.779644,0.688919,0.4849
0.443307,0.780338,0.688575,0.484851
0.443129,0.781033,0.688231,0.484803
0.442952,0.781729,0.687887,0.484754
0.442775,0.782426,0.687543,0.484706
0.442598,0.783123,0.687199,0.484657
0.442421,0.78382,0.686855,0.484609
0.442244,0.784518,0.686512,0.48456
0.442067,0.785217,0.686169,0.484512
0.44189,0.785917,0.685826,0.484463
0.441713,0.786617,0.685483,0.484415
0.441537,0.787318,0.68514,0.484367
0.44136,0.788019,0.684798,0.484318
0.441184,0.788721,0.684455,0.48427
0.441007,0.789424,0.684113,0.484221
0.440831,0.790127,0.683771,0.484173
0.440654,0.790831,0.683429,0.484124
0.440478,0.791535,0.683087,0.484076
0.440302,0.792241,0.682746,0.484028
0.440126,0.792946,0.682405,0.483979
0.43995,0.793653,0.682063,0.483931
0.439774,0.79436,0.681722,0.483882
0.439598,0.795067,0.681382,0.483834
0.439422,0.795776,0.681041,0.483786
0.439246,0.796485,0.6807,0.483737
0.439071,0.797194,0.68036,0.483689
0.438895,0.797904,0.68002,0.483641
0.43872,0.798615,0.67968,0.483592
0.438544,0.799326,0.67934,0.483544
0.438369,0.800039,0.679001,0.483495
0.438193,0.800751,0.678661,0.483447
0.438018,0.801465,0.678322,0.483399
0.437843,0.802179,0.677983,0.48335
0.437668,0.802893,0.677644,0.483302
0.437493,0.803608,0.677305,0.483254
0.437318,0.804324,0.676966,0.483205
0.437143,0.805041,0.676628,0.483157
0.436968,0.805758,0.676289,0.483109
0.436793,0.806476,0.675951,0.48306
0.436618,0.807194,0.675613,0.483012
0.436444,0.807913,0.675276,0.482964
0.436269,0.808633,0.674938,0.482916
0.436095,0.809353,0.674601,0.482867
0.43592,0.810074,0.674263,0.482819
0.435746,0.810796,0.673926,0.482771
0.435572,0.811518,0.673589,0.482722
0.435398,0.812241,0.673253,0.482674
0.435223,0.812965,0.672916,0.482626
0.435049,0.813689,0.672579,0.482578
0.434875,0.814414,0.672243,0.482529
0.434701,0.815139,0.671907,0.482481
0.434527,0.815866,0.671571,0.482433
0.434354,0.816592,0.671235,0.482385
0.43418,0.81732,0.6709,0.482336
0.434006,0.818048,0.670564,0.482288
0.433833,0.818777,0.670229,0.48224
0.433659,0.819506,0.669894,0.482192
0.433486,0.820236,0.669559,0.482144
0.433312,0.820967,0.669224,0.482095
0.433139,0.821698,0.66889,0.482047
0.432966,0.82243,0.668555,0.481999
0.432793,0.823163,0.668221,0.481951
0.43262,0.823896,0.667887,0.481902
0.432446,0.82463,0.667553,0.481854
0.432274,0.825365,0.667219,0.481806
0.432101,0.8261,0.666886,0.481758
0.431928,0.826836,0.666552,0.48171
0.431755,0.827573,0.666219,0.481662
0.431582,0.82831,0.665886,0.481613
0.43141,0.829048,0.665553,0.481565
0.431237,0.829786,0.66522,0.481517
0.431065,0.830525,0.664888,0.481469
0.430892,0.831265,0.664555,0.481421
0.43072,0.832006,0.664223,0.481373
0.430548,0.832747,0.663891,0.481325
0.430375,0.833489,0.663559,0.481276
0.430203,0.834231,0.663227,0.481228
0.430031,0.834975,0.662896,0.48118
0.429859,0.835718,0.662564,0.481132
0.429687,0.836463,0.662233,0.481084
0.429515,0.837208,0.661902,0.481036
0.429344,0.837954,0.661571,0.480988
0.429172,0.8387,0.66124,0.48094
0.429,0.839447,0.66091,0.480891
0.428829,0.840195,0.660579,0.480843
0.428657,0.840944,0.660249,0.480795
0.428486,0.841693,0.659919,0.480747
0.428314,0.842443,0.659589,0.480699
0.428143,0.843193,0.659259,0.480651
0.427972,0.843944,0.65893,0.480603
0.427801,0.844696,0.6586,0.480555
