energy,productivity,fun,hunger
0.600892,0.757166,0.587253,0.999594
0.600831,0.757124,0.587194,0.999494
0.600771,0.757081,0.587135,0.999394
0.600711,0.757039,0.587076,0.999294
0.600651,0.756997,0.587018,0.999194
0.600591,0.756955,0.586959,0.999094
0.600531,0.756913,0.5869,0.998994
0.600471,0.75687,0.586842,0.998894
0.600411,0.756828,0.586783,0.998795
0.600351,0.756786,0.586724,0.998695
0.600291,0.756744,0.586666,0.998595
0.600231,0.756701,0.586607,0.998495
0.600171,0.756659,0.586548,0.998395
0.600111,0.756617,0.58649,0.998295
0.600051,0.756575,0.586431,0.998195
0.599991,0.756533,0.586372,0.998096
0.599931,0.75649,0.586314,0.997996
0.599871,0.756448,0.586255,0.997896
0.599811,0.756406,0.586196,0.997796
0.599751,0.756364,0.586138,0.997696
0.599691,0.756322,0.586079,0.997597
0.599631,0.756279,0.586021,0.997497
0.599571,0.756237,0.585962,0.997397
0.599511,0.756195,0.585903,0.997297
0.599451,0.756153,0.585845,0.997198
0.599391,0.756111,0.585786,0.997098
0.599331,0.756068,0.585728,0.996998
0.599271,0.756026,0.585669,0.996899
0.599211,0.755984,0.58561,0.996799
0.599151,0.755942,0.585552,0.996699
0.599091,0.7559,0.585493,0.9966
0.599032,0.755857,0.585435,0.9965
0.598972,0.755815,0.585376,0.9964
0.598912,0.755773,0.585318,0.996301
0.598852,0.755731,0.585259,0.996201
0.598792,0.755689,0.585201,0.996101
0.598732,0.755647,0.585142,0.996002
0.598672,0.755604,0.585084,0.995902
0.598612,0.755562,0.585025,0.995803
0.598552,0.75552,0.584967,0.995703
0.598493,0.755478,0.584908,0.995603
0.598433,0.755436,0.58485,0.995504
0.598373,0.755394,0.584791,0.995404
0.598313,0.755352,0.584733,0.995305
0.598253,0.755309,0.584674,0.995205
0.598193,0.755267,0.584616,0.995106
0.598134,0.755225,0.584557,0.995006
0.598074,0.755183,0.584499,0.994907
0.598014,0.755141,0.58444,0.994807
0.597954,0.755099,0.584382,0.994708
0.597894,0.755057,0.584323,0.994608
0.597835,0.755014,0.584265,0.994509
0.597775,0.754972,0.584207,0.994409
0.597715,0.75493,0.584148,0.99431
0.597655,0.754888,0.58409,0.99421
0.597596,0.754846,0.584031,0.994111
0.597536,0.754804,0.583973,0.994012
0.597476,0.754762,0.583915,0.993912
0.597416,0.75472,0.583856,0.993813
0.597357,0.754678,0.583798,0.993713
0.597297,0.754635,0.583739,0.993614
0.597237,0.754593,0.583681,0.993515
0.597177,0.754551,0.583623,0.993415
0.597118,0.754509,0.583564,0.993316
0.597058,0.754467,0.583506,0.993217
0.596998,0.754425,0.583448,0.993117
0.596939,0.754383,0.583389,0.993018
0.596879,0.754341,0.583331,0.992919
0.596819,0.754299,0.583273,0.992819
0.596759,0.754257,0.583214,0.99272
0.5967,0.754214,0.583156,0.992621
0.59664,0.754172,0.583098,0.992522
0.59658,0.75413,0.583039,0.992422
0.596521,0.754088,0.582981,0.992323
0.596461,0.754046,0.582923,0.992224
0.596401,0.754004,0.582864,0.992125
0.596342,0.753962,0.582806,0.992025
0.596282,0.75392,0.582748,0.991926
0.596223,0.753878,0.58269,0.991827
0.596163,0.753836,0.582631,0.991728
0.596103,0.753794,0.582573,0.991629
0.596044,0.753752,0.582515,0.99153
0.595984,0.75371,0.582457,0.99143
0.595925,0.753668,0.582398,0.991331
0.595865,0.753626,0.58234,0.991232
0.595805,0.753584,0.582282,0.991133
0.595746,0.753541,0.582224,0.991034
0.595686,0.753499,0.582165,0.990935
0.595627,0.753457,0.582107,0.990836
0.595567,0.753415,0.582049,0.990737
0.595507,0.753373,0.581991,0.990638
0.595448,0.753331,0.581933,0.990538
0.595388,0.753289,0.581874,0.990439
0.595329,0.753247,0.581816,0.99034
0.595269,0.753205,0.581758,0.990241
0.59521,0.753163,0.5817,0.990142
0.59515,0.753121,0.581642,0.990043
0.595091,0.753079,0.581583,0.989944
0.595031,0.753037,0.581525,0.989845
0.594972,0.752995,0.581467,0.989746
0.594912,0.752953,0.581409,0.989647
0.594853,0.752911,0.581351,0.989548
0.594793,0.752869,0.581293,0.989449
0.594734,0.752827,0.581235,0.98935
0.594674,0.752785,0.581176,0.989252
0.594615,0.752743,0.581118,0.989153
0.594555,0.752701,0.58106,0.989054
0.594496,0.752659,0.581002,0.988955
0.594436,0.752617,0.580944,0.988856
0.594377,0.752575,0.580886,0.988757
0.594318,0.752533,0.580828,0.988658
0.594258,0.752491,0.58077,0.988559
0.594199,0.752449,0.580712,0.98846
0.594139,0.752407,0.580654,0.988362
0.59408,0.752365,0.580596,0.988263
0.594021,0.752323,0.580538,0.988164
0.593961,0.752281,0.580479,0.988065
0.593902,0.752239,0.580421,0.987966
0.593842,0.752197,0.580363,0.987867
0.593783,0.752155,0.580305,0.987769
0.593724,0.752113,0.580247,0.98767
0.593664,0.752071,0.580189,0.987571
0.593605,0.752029,0.580131,0.987472
0.593545,0.751987,0.580073,0.987374
0.593486,0.751945,0.580015,0.987275
0.593427,0.751904,0.579957,0.987176
0.593367,0.751862,0.579899,0.987077
0.593308,0.75182,0.579841,0.986979
0.593249,0.751778,0.579783,0.98688
0.593189,0.751736,0.579725,0.986781
0.59313,0.751694,0.579667,0.986683
0.593071,0.751652,0.579609,0.986584
0.593011,0.75161,0.579551,0.986485
0.592952,0.751568,0.579493,0.986387
0.592893,0.751526,0.579435,0.986288
0.592834,0.751484,0.579378,0.986189
0.592774,0.751442,0.57932,0.986091
0.592715,0.7514,0.579262,0.985992
0.592656,0.751358,0.579204,0.985894
0.592597,0.751316,0.579146,0.985795
0.592537,0.751275,0.579088,0.985696
0.592478,0.751233,0.57903,0.985598
0.592419,0.751191,0.578972,0.985499
0.592359,0.751149,0.578914,0.985401
0.5923,0.751107,0.578856,0.985302
0.592241,0.751065,0.578798,0.985204
0.592182,0.751023,0.578741,0.985105
0.592123,0.750981,0.578683,0.985007
0.592063,0.750939,0.578625,0.984908
0.592004,0.750897,0.578567,0.98481
0.591945,0.750855,0.578509,0.984711
0.591886,0.750814,0.578451,0.984613
0.591827,0.750772,0.578393,0.984514
0.591767,0.75073,0.578336,0.984416
0.591708,0.750688,0.578278,0.984317
0.591649,0.750646,0.57822,0.984219
0.59159,0.750604,0.578162,0.984121
0.591531,0.750562,0.578104,0.984022
0.591472,0.75052,0.578046,0.983924
0.591412,0.750479,0.577989,0.983825
0.591353,0.750437,0.577931,0.983727
0.591294,0.750395,0.577873,0.983629
0.591235,0.750353,0.577815,0.98353
0.591176,0.750311,0.577757,0.983432
0.591117,0.750269,0.5777,0.983334
0.591058,0.750227,0.577642,0.983235
0.590999,0.750185,0.577584,0.983137
0.590939,0.750144,0.577526,0.983039
0.59088,0.750102,0.577469,0.98294
0.590821,0.75006,0.577411,0.982842
0.590762,0.750018,0.577353,0.982744
0.590703,0.749976,0.577295,0.982645
0.590644,0.749934,0.577238,0.982547
0.590585,0.749893,0.57718,0.982449
0.590526,0.749851,0.577122,0.982351
0.590467,0.749809,0.577065,0.982252
0.590408,0.749767,0.577007,0.982154
0.590349,0.749725,0.576949,0.982056
0.59029,0.749683,0.576891,0.981958
0.590231,0.749642,0.576834,0.98186
0.590172,0.7496,0.576776,0.981761
0.590113,0.749558,0.576718,0.981663
0.590054,0.749516,0.576661,0.981565
0.589995,0.749474,0.576603,0.981467
0.589936,0.749432,0.576545,0.981369
0.589877,0.749391,0.576488,0.981271
0.589818,0.749349,0.57643,0.981172
0.589759,0.749307,0.576372,0.981074
0.5897,0.749265,0.576315,0.980976
0.589641,0.749223,0.576257,0.980878
0.589582,0.749182,0.5762,0.98078
0.589523,0.74914,0.576142,0.980682
0.589464,0.749098,0.576084,0.980584
0.589405,0.749056,0.576027,0.980486
0.589346,0.749014,0.575969,0.980388
0.589287,0.748973,0.575912,0.98029
0.589228,0.748931,0.575854,0.980192
0.589169,0.748889,0.575796,0.980094
0.58911,0.748847,0.575739,0.979996
0.589051,0.748805,0.575681,0.979898
0.588992,0.748764,0.575624,0.9798
0.588934,0.748722,0.575566,0.979702
0.588875,0.74868,0.575508,0.979604
0.588816,0.748638,0.575451,0.979506
0.588757,0.748597,0.575393,0.979408
0.588698,0.748555,0.575336,0.97931
0.588639,0.748513,0.575278,0.979212
0.58858,0.748471,0.575221,0.979114
0.588521,0.74843,0.575163,0.979016
0.588463,0.748388,0.575106,0.978918
0.588404,0.748346,0.575048,0.97882
0.588345,0.748304,0.574991,0.978722
0.588286,0.748262,0.574933,0.978625
0.588227,0.748221,0.574876,0.978527
0.588168,0.748179,0.574818,0.978429
0.58811,0.748137,0.574761,0.978331
0.588051,0.748096,0.574703,0.978233
0.587992,0.748054,0.574646,0.978135
0.587933,0.748012,0.574588,0.978038
0.587874,0.74797,0.574531,0.97794
0.587816,0.747929,0.574473,0.977842
0.587757,0.747887,0.574416,0.977744
0.587698,0.747845,0.574359,0.977646
0.587639,0.747803,0.574301,0.977549
0.587581,0.747762,0.574244,0.977451
0.587522,0.74772,0.574186,0.977353
0.587463,0.747678,0.574129,0.977255
0.587404,0.747637,0.574071,0.977158
0.587346,0.747595,0.574014,0.97706
0.587287,0.747553,0.573957,0.976962
0.587228,0.747511,0.573899,0.976865
0.587169,0.74747,0.573842,0.976767
0.587111,0.747428,0.573784,0.976669
0.587052,0.747386,0.573727,0.976572
0.586993,0.747345,0.57367,0.976474
0.586935,0.747303,0.573612,0.976376
0.586876,0.747261,0.573555,0.976279
0.586817,0.747219,0.573498,0.976181
0.586758,0.747178,0.57344,0.976083
0.5867,0.747136,0.573383,0.975986
0.586641,0.747094,0.573326,0.975888
0.586582,0.747053,0.573268,0.975791
0.586524,0.747011,0.573211,0.975693
0.586465,0.746969,0.573154,0.975595
0.586406,0.746928,0.573096,0.975498
0.586348,0.746886,0.573039,0.9754
0.586289,0.746844,0.572982,0.975303
0.586231,0.746803,0.572924,0.975205
0.586172,0.746761,0.572867,0.975108
0.586113,0.746719,0.57281,0.97501
0.586055,0.746678,0.572753,0.974913
0.585996,0.746636,0.572695,0.974815
0.585938,0.746594,0.572638,0.974718
0.585879,0.746553,0.572581,0.97462
0.58582,0.746511,0.572523,0.974523
0.585762,0.746469,0.572466,0.974425
0.585703,0.746428,0.572409,0.974328
0.585645,0.746386,0.572352,0.97423
0.585586,0.746344,0.572294,0.974133
0.585527,0.746303,0.572237,0.974036
0.585469,0.746261,0.57218,0.973938
0.58541,0.74622,0.572123,0.973841
0.585352,0.746178,0.572066,0.973743
0.585293,0.746136,0.572008,0.973646
0.585235,0.746095,0.571951,0.973549
0.585176,0.746053,0.571894,0.973451
0.585118,0.746011,0.571837,0.973354
0.585059,0.74597,0.57178,0.973257
0.585001,0.745928,0.571722,0.973159
0.584942,0.745887,0.571665,0.973062
0.584884,0.745845,0.571608,0.972965
0.584825,0.745803,0.571551,0.972867
0.584767,0.745762,0.571494,0.97277
0.584708,0.74572,0.571437,0.972673
0.58465,0.745678,0.57138,0.972576
0.584591,0.745637,0.571322,0.972478
0.584533,0.745595,0.571265,0.972381
0.584474,0.745554,0.571208,0.972284
0.584416,0.745512,0.571151,0.972187
0.584358,0.74547,0.571094,0.972089
0.584299,0.745429,0.571037,0.971992
0.584241,0.745387,0.57098,0.971895
0.584182,0.745346,0.570923,0.971798
0.584124,0.745304,0.570865,0.971701
0.584065,0.745263,0.570808,0.971603
0.584007,0.745221,0.570751,0.971506
0.583949,0.745179,0.570694,0.971409
0.58389,0.745138,0.570637,0.971312
0.583832,0.745096,0.57058,0.971215
0.583773,0.745055,0.570523,0.971118
0.583715,0.745013,0.570466,0.971021
0.583657,0.744972,0.570409,0.970924
0.583598,0.74493,0.570352,0.970826
0.58354,0.744888,0.570295,0.970729
0.583482,0.744847,0.570238,0.970632
0.583423,0.744805,0.570181,0.970535
0.583365,0.744764,0.570124,0.970438
0.583307,0.744722,0.570067,0.970341
0.583248,0.744681,0.57001,0.970244
0.58319,0.744639,0.569953,0.970147
0.583132,0.744598,0.569896,0.97005
0.583073,0.744556,0.569839,0.969953
0.583015,0.744514,0.569782,0.969856
0.582957,0.744473,0.569725,0.969759
0.582898,0.744431,0.569668,0.969662
0.58284,0.74439,0.569611,0.969565
0.582782,0.744348,0.569554,0.969468
0.582724,0.744307,0.569497,0.969371
0.582665,0.744265,0.56944,0.969274
0.582607,0.744224,0.569383,0.969177
0.582549,0.744182,0.569326,0.96908
0.58249,0.744141,0.569269,0.968984
0.582432,0.744099,0.569212,0.968887
0.582374,0.744058,0.569155,0.96879
0.582316,0.744016,0.569098,0.968693
0.582258,0.743975,0.569042,0.968596
0.582199,0.743933,0.568985,0.968499
0.582141,0.743892,0.568928,0.968402
0.582083,0.74385,0.568871,0.968305
0.582025,0.743809,0.568814,0.968209
0.581966,0.743767,0.568757,0.968112
0.581908,0.743726,0.5687,0.968015
0.58185,0.743684,0.568643,0.967918
0.581792,0.743643,0.568586,0.967821
0.581734,0.743601,0.56853,0.967725
0.581676,0.74356,0.568473,0.967628
0.581617,0.743518,0.568416,0.967531
0.581559,0.743477,0.568359,0.967434
0.581501,0.743435,0.568302,0.967338
0.581443,0.743394,0.568245,0.967241
0.581385,0.743352,0.568189,0.967144
0.581327,0.743311,0.568132,0.967047
0.581268,0.743269,0.568075,0.966951
0.58121,0.743228,0.568018,0.966854
0.581152,0.743186,0.567961,0.966757
0.581094,0.743145,0.567905,0.966661
0.581036,0.743103,0.567848,0.966564
0.580978,0.743062,0.567791,0.966467
0.58092,0.74302,0.567734,0.966371
0.580862,0.742979,0.567677,0.966274
0.580804,0.742938,0.567621,0.966177
0.580746,0.742896,0.567564,0.966081
0.580687,0.742855,0.567507,0.965984
0.580629,0.742813,0.56745,0.965888
0.580571,0.742772,0.567394,0.965791
0.580513,0.74273,0.567337,0.965694
0.580455,0.742689,0.56728,0.965598
0.580397,0.742647,0.567223,0.965501
0.580339,0.742606,0.567167,0.965405
0.580281,0.742565,0.56711,0.965308
0.580223,0.742523,0.567053,0.965212
0.580165,0.742482,0.566997,0.965115
0.580107,0.74244,0.56694,0.965019
0.580049,0.742399,0.566883,0.964922
0.579991,0.742357,0.566826,0.964826
0.579933,0.742316,0.56677,0.964729
0.579875,0.742275,0.566713,0.964633
0.579817,0.742233,0.566656,0.964536
0.579759,0.742192,0.5666,0.96444
0.579701,0.74215,0.566543,0.964343
0.579643,0.742109,0.566486,0.964247
0.579585,0.742068,0.56643,0.96415
0.579527,0.742026,0.566373,0.964054
0.579469,0.741985,0.566317,0.963958
0.579411,0.741943,0.56626,0.963861
0.579353,0.741902,0.566203,0.963765
0.579295,0.741861,0.566147,0.963668
0.579238,0.741819,0.56609,0.963572
0.57918,0.741778,0.566033,0.963476
0.579122,0.741736,0.565977,0.963379
0.579064,0.741695,0.56592,0.963283
0.579006,0.741654,0.565864,0.963187
0.578948,0.741612,0.565807,0.96309
0.57889,0.741571,0.56575,0.962994
0.578832,0.74153,0.565694,0.962898
0.578774,0.741488,0.565637,0.962802
0.578716,0.741447,0.565581,0.962705
0.578659,0.741405,0.565524,0.962609
0.578601,0.741364,0.565468,0.962513
0.578543,0.741323,0.565411,0.962416
0.578485,0.741281,0.565355,0.96232
0.578427,0.74124,0.565298,0.962224
0.578369,0.741199,0.565242,0.962128
0.578311,0.741157,0.565185,0.962032
0.578254,0.741116,0.565128,0.961935
0.578196,0.741075,0.565072,0.961839
0.578138,0.741033,0.565015,0.961743
0.57808,0.740992,0.564959,0.961647
0.578022,0.740951,0.564902,0.961551
0.577965,0.740909,0.564846,0.961454
0.577907,0.740868,0.564789,0.961358
0.577849,0.740827,0.564733,0.961262
0.577791,0.740785,0.564677,0.961166
0.577733,0.740744,0.56462,0.96107
0.577676,0.740703,0.564564,0.960974
0.577618,0.740661,0.564507,0.960878
0.57756,0.74062,0.564451,0.960782
0.577502,0.740579,0.564394,0.960686
0.577445,0.740537,0.564338,0.96059
0.577387,0.740496,0.564281,0.960493
0.577329,0.740455,0.564225,0.960397
0.577271,0.740413,0.564169,0.960301
0.577214,0.740372,0.564112,0.960205
0.577156,0.740331,0.564056,0.960109
0.577098,0.740289,0.563999,0.960013
0.57704,0.740248,0.563943,0.959917
0.576983,0.740207,0.563886,0.959821
0.576925,0.740165,0.56383,0.959725
0.576867,0.740124,0.563774,0.959629
0.57681,0.740083,0.563717,0.959533
0.576752,0.740042,0.563661,0.959437
0.576694,0.74,0.563605,0.959341
0.576637,0.739959,0.563548,0.959246
0.576579,0.739918,0.563492,0.95915
0.576521,0.739876,0.563436,0.959054
0.576464,0.739835,0.563379,0.958958
0.576406,0.739794,0.563323,0.958862
0.576348,0.739753,0.563267,0.958766
0.576291,0.739711,0.56321,0.95867
0.576233,0.73967,0.563154,0.958574
0.576176,0.739629,0.563098,0.958478
0.576118,0.739588,0.563041,0.958383
0.57606,0.739546,0.562985,0.958287
0.576003,0.739505,0.562929,0.958191
0.575945,0.739464,0.562872,0.958095
0.575887,0.739422,0.562816,0.957999
0.57583,0.739381,0.56276,0.957903
0.575772,0.73934,0.562704,0.957808
0.575715,0.739299,0.562647,0.957712
0.575657,0.739257,0.562591,0.957616
0.5756,0.739216,0.562535,0.95752
0.575542,0.739175,0.562478,0.957425
0.575484,0.739134,0.562422,0.957329
0.575427,0.739092,0.562366,0.957233
0.575369,0.739051,0.56231,0.957137
0.575312,0.73901,0.562254,0.957042
0.575254,0.738969,0.562197,0.956946
0.575197,0.738928,0.562141,0.95685
0.575139,0.738886,0.562085,0.956755
0.575082,0.738845,0.562029,0.956659
0.575024,0.738804,0.561972,0.956563
0.574967,0.738763,0.561916,0.956468
0.574909,0.738721,0.56186,0.956372
0.574852,0.73868,0.561804,0.956276
0.574794,0.738639,0.561748,0.956181
0.574737,0.738598,0.561692,0.956085
0.574679,0.738557,0.561635,0.955989
0.574622,0.738515,0.561579,0.955894
0.574564,0.738474,0.561523,0.955798
0.574507,0.738433,0.561467,0.955703
0.574449,0.738392,0.561411,0.955607
0.574392,0.738351,0.561355,0.955512
0.574335,0.738309,0.561298,0.955416
0.574277,0.738268,0.561242,0.955321
0.57422,0.738227,0.561186,0.955225
0.574162,0.738186,0.56113,0.955129
0.574105,0.738145,0.561074,0.955034
0.574047,0.738103,0.561018,0.954938
0.57399,0.738062,0.560962,0.954843
0.573933,0.738021,0.560906,0.954747
0.573875,0.73798,0.56085,0.954652
0.573818,0.737939,0.560793,0.954557
0.573761,0.737898,0.560737,0.954461
0.573703,0.737856,0.560681,0.954366
0.573646,0.737815,0.560625,0.95427
0.573588,0.737774,0.560569,0.954175
0.573531,0.737733,0.560513,0.954079
0.573474,0.737692,0.560457,0.953984
0.573416,0.737651,0.560401,0.953889
0.573359,0.737609,0.560345,0.953793
0.573302,0.737568,0.560289,0.953698
0.573244,0.737527,0.560233,0.953602
0.573187,0.737486,0.560177,0.953507
0.57313,0.737445,0.560121,0.953412
0.573072,0.737404,0.560065,0.953316
0.573015,0.737363,0.560009,0.953221
0.572958,0.737321,0.559953,0.953126
0.5729,0.73728,0.559897,0.95303
0.572843,0.737239,0.559841,0.952935
0.572786,0.737198,0.559785,0.95284
0.572729,0.737157,0.559729,0.952744
0.572671,0.737116,0.559673,0.952649
0.572614,0.737075,0.559617,0.952554
0.572557,0.737033,0.559561,0.952459
0.5725,0.736992,0.559505,0.952363
0.572442,0.736951,0.559449,0.952268
0.572385,0.73691,0.559393,0.952173
0.572328,0.736869,0.559337,0.952078
0.572271,0.736828,0.559281,0.951983
0.572213,0.736787,0.559225,0.951887
0.572156,0.736746,0.559169,0.951792
0.572099,0.736705,0.559114,0.951697
0.572042,0.736663,0.559058,0.951602
0.571985,0.736622,0.559002,0.951507
0.571927,0.736581,0.558946,0.951412
0.57187,0.73654,0.55889,0.951316
0.571813,0.736499,0.558834,0.951221
0.571756,0.736458,0.558778,0.951126
0.571699,0.736417,0.558722,0.951031
0.571641,0.736376,0.558666,0.950936
0.571584,0.736335,0.558611,0.950841
0.571527,0.736294,0.558555,0.950746
0.57147,0.736253,0.558499,0.950651
0.571413,0.736211,0.558443,0.950556
0.571356,0.73617,0.558387,0.950461
0.571299,0.736129,0.558331,0.950365
0.571241,0.736088,0.558275,0.95027
0.571184,0.736047,0.55822,0.950175
0.571127,0.736006,0.558164,0.95008
0.57107,0.735965,0.558108,0.949985
0.571013,0.735924,0.558052,0.94989
0.570956,0.735883,0.557996,0.949795
0.570899,0.735842,0.557941,0.9497
0.570842,0.735801,0.557885,0.949605
0.570785,0.73576,0.557829,0.949511
0.570727,0.735719,0.557773,0.949416
0.57067,0.735678,0.557717,0.949321
0.570613,0.735637,0.557662,0.949226
0.570556,0.735596,0.557606,0.949131
0.570499,0.735555,0.55755,0.949036
0.570442,0.735513,0.557494,0.948941
0.570385,0.735472,0.557439,0.948846
0.570328,0.735431,0.557383,0.948751
0.570271,0.73539,0.557327,0.948656
0.570214,0.735349,0.557271,0.948561
0.570157,0.735308,0.557216,0.948467
0.5701,0.735267,0.55716,0.948372
0.570043,0.735226,0.557104,0.948277
0.569986,0.735185,0.557049,0.948182
0.569929,0.735144,0.556993,0.948087
0.569872,0.735103,0.556937,0.947992
0.569815,0.735062,0.556881,0.947898
0.569758,0.735021,0.556826,0.947803
0.569701,0.73498,0.55677,0.947708
0.569644,0.734939,0.556714,0.947613
0.569587,0.734898,0.556659,0.947519
0.56953,0.734857,0.556603,0.947424
0.569473,0.734816,0.556547,0.947329
0.569416,0.734775,0.556492,0.947234
0.569359,0.734734,0.556436,0.94714
0.569302,0.734693,0.55638,0.947045
0.569245,0.734652,0.556325,0.94695
0.569189,0.734611,0.556269,0.946855
0.569132,0.73457,0.556214,0.946761
0.569075,0.734529,0.556158,0.946666
0.569018,0.734488,0.556102,0.946571
0.568961,0.734447,0.556047,0.946477
0.568904,0.734406,0.555991,0.946382
0.568847,0.734365,0.555935,0.946287
0.56879,0.734324,0.55588,0.946193
0.568733,0.734283,0.555824,0.946098
0.568676,0.734242,0.555769,0.946004
0.56862,0.734201,0.555713,0.945909
0.568563,0.73416,0.555658,0.945814
0.568506,0.734119,0.555602,0.94572
0.568449,0.734079,0.555546,0.945625
0.568392,0.734038,0.555491,0.945531
0.568335,0.733997,0.555435,0.945436
0.568279,0.733956,0.55538,0.945342
0.568222,0.733915,0.555324,0.945247
0.568165,0.733874,0.555269,0.945153
