energy,productivity,fun,hunger
0.83336,0.803432,0.742721,0.573875
0.833277,0.80334,0.764926,0.573817
0.832777,0.803247,0.764849,0.57376
0.832277,0.803155,0.764773,0.573703
0.831778,0.803062,0.764696,0.573645
0.831279,0.80297,0.76462,0.573588
0.83078,0.802878,0.764543,0.57353
0.830282,0.802785,0.764467,0.573473
0.829784,0.802693,0.76439,0.573416
0.829286,0.802601,0.764314,0.573358
0.828788,0.802509,0.764237,0.573301
0.828291,0.802416,0.764161,0.573244
0.827794,0.802324,0.764085,0.573186
0.827298,0.802232,0.764008,0.573129
0.826801,0.80214,0.763932,0.573072
0.826305,0.802047,0.763855,0.573014
0.825809,0.801955,0.763779,0.572957
0.825314,0.801863,0.763703,0.5729
0.824819,0.801771,0.763626,0.572843
0.824324,0.801679,0.76355,0.572785
0.823829,0.801586,0.763474,0.572728
0.823335,0.801494,0.763397,0.572671
0.822841,0.801402,0.763321,0.572613
0.822348,0.80131,0.763245,0.572556
0.821854,0.801218,0.763168,0.572499
0.821361,0.801126,0.763092,0.572442
0.820868,0.801034,0.763016,0.572384
0.820376,0.800941,0.762939,0.572327
0.819884,0.800849,0.762863,0.57227
0.819802,0.800757,0.762787,0.572213
0.81972,0.800665,0.785592,0.572156
0.819228,0.800573,0.785513,0.572098
0.818736,0.800481,0.785435,0.572041
0.818245,0.800389,0.785356,0.571984
0.817754,0.800297,0.785278,0.571927
0.817264,0.800205,0.785199,0.57187
0.816773,0.800113,0.785121,0.571812
0.816283,0.800021,0.785042,0.571755
0.815794,0.799929,0.784964,0.571698
0.815304,0.799837,0.784885,0.571641
0.814815,0.799745,0.784807,0.571584
0.814326,0.799653,0.784728,0.571526
0.813838,0.799561,0.78465,0.571469
0.813349,0.799469,0.784571,0.571412
0.812861,0.799377,0.784493,0.571355
0.812374,0.799285,0.784414,0.571298
0.811886,0.799193,0.784336,0.571241
0.811399,0.799102,0.784257,0.571184
0.810913,0.79901,0.784179,0.571127
0.810426,0.798918,0.7841,0.571069
0.80994,0.798826,0.784022,0.571012
0.809454,0.798734,0.783944,0.570955
0.808968,0.798642,0.783865,0.570898
0.808483,0.79855,0.783787,0.570841
0.807998,0.798459,0.783709,0.570784
0.807513,0.798367,0.78363,0.570727
0.807029,0.798275,0.783552,0.57067
0.806544,0.798183,0.783473,0.570613
0.806061,0.798092,0.783395,0.570556
0.805577,0.798,0.783317,0.570499
0.805094,0.797908,0.783238,0.570442
0.804611,0.797816,0.78316,0.570385
0.804128,0.797725,0.783082,0.570327
0.803645,0.797633,0.783003,0.57027
0.803163,0.797541,0.782925,0.570213
0.802681,0.797449,0.782847,0.570156
0.8022,0.797358,0.782769,0.570099
0.801719,0.797266,0.78269,0.570042
0.801238,0.797174,0.782612,0.569985
0.800757,0.797083,0.782534,0.569928
0.800277,0.796991,0.782456,0.569871
0.799796,0.796899,0.782377,0.569814
0.799317,0.796808,0.782299,0.569757
0.798837,0.796716,0.782221,0.5697
0.798358,0.796625,0.782143,0.569643
0.797879,0.796533,0.782064,0.569586
0.7974,0.796441,0.781986,0.56953
0.796922,0.79635,0.781908,0.569473
0.796842,0.796258,0.78183,0.569416
0.796762,0.796167,0.805204,0.569359
0.796284,0.796075,0.805124,0.569302
0.795807,0.795984,0.805043,0.569245
0.795329,0.795892,0.804963,0.569188
0.794852,0.795801,0.804882,0.569131
0.794375,0.795709,0.804802,0.569074
0.793898,0.795618,0.804721,0.569017
0.793422,0.795526,0.804641,0.56896
0.792946,0.795435,0.80456,0.568903
0.79247,0.795343,0.80448,0.568846
0.791995,0.795252,0.804399,0.56879
0.79152,0.79516,0.804319,0.568733
0.791045,0.795069,0.804238,0.568676
0.79057,0.794977,0.804158,0.568619
0.790096,0.794886,0.804078,0.568562
0.789622,0.794795,0.803997,0.568505
0.789148,0.794703,0.803917,0.568448
0.788675,0.794612,0.803836,0.568392
0.788202,0.794521,0.803756,0.568335
0.787729,0.794429,0.803676,0.568278
0.787256,0.794338,0.803595,0.568221
0.786784,0.794247,0.803515,0.568164
0.786312,0.794155,0.803435,0.568107
0.78584,0.794064,0.803354,0.568051
0.785369,0.793973,0.803274,0.567994
0.784898,0.793881,0.803194,0.567937
0.784819,0.79379,0.803113,0.56788
0.784741,0.793699,0.827124,0.567823
0.78427,0.793607,0.827041,0.567767
0.783799,0.793516,0.826958,0.56771
0.783329,0.793425,0.826876,0.567653
0.782859,0.793334,0.826793,0.567596
0.782389,0.793243,0.82671,0.56754
0.78192,0.793151,0.826628,0.567483
0.781451,0.79306,0.826545,0.567426
0.780982,0.792969,0.826462,0.567369
0.780513,0.792878,0.82638,0.567313
0.780045,0.792787,0.826297,0.567256
0.779577,0.792695,0.826215,0.567199
0.779109,0.792604,0.826132,0.567142
0.778642,0.792513,0.826049,0.567086
0.778175,0.792422,0.825967,0.567029
0.778097,0.792331,0.825884,0.566972
0.778019,0.79224,0.850576,0.566916
0.777553,0.792149,0.85049,0.566859
0.777086,0.792058,0.850405,0.566802
0.77662,0.791967,0.85032,0.566746
0.776154,0.791876,0.850235,0.566689
0.775688,0.791785,0.85015,0.566632
0.775223,0.791693,0.850065,0.566576
0.774758,0.791602,0.84998,0.566519
0.774293,0.791511,0.849895,0.566462
0.773828,0.79142,0.84981,0.566406
0.773364,0.791329,0.849725,0.566349
0.7729,0.791238,0.84964,0.566292
0.772436,0.791147,0.849555,0.566236
0.771973,0.791056,0.84947,0.566179
0.77151,0.790966,0.849385,0.566122
0.771047,0.790875,0.849301,0.566066
0.770584,0.790784,0.849216,0.566009
0.770122,0.790693,0.849131,0.565953
0.76966,0.790602,0.849046,0.565896
0.769198,0.790511,0.848961,0.565839
0.768737,0.79042,0.848876,0.565783
0.768276,0.790329,0.848791,0.565726
0.767815,0.790238,0.848706,0.56567
0.767354,0.790147,0.848621,0.565613
0.766894,0.790057,0.848536,0.565557
0.766434,0.789966,0.848452,0.5655
0.765974,0.789875,0.848367,0.565443
0.765514,0.789784,0.848282,0.565387
0.765055,0.789693,0.848197,0.56533
0.764596,0.789602,0.848112,0.565274
0.764137,0.789512,0.848027,0.565217
0.763679,0.789421,0.847943,0.565161
0.763221,0.78933,0.847858,0.565104
0.762763,0.789239,0.847773,0.565048
0.762686,0.789149,0.847688,0.564991
0.76261,0.789058,0.873032,0.564935
0.762153,0.788967,0.872944,0.564878
0.761695,0.788876,0.872857,0.564822
0.761238,0.788786,0.87277,0.564765
0.760782,0.788695,0.872683,0.564709
0.760325,0.788604,0.872595,0.564652
0.759869,0.788514,0.872508,0.564596
0.759413,0.788423,0.872421,0.564539
0.758958,0.788332,0.872333,0.564483
0.758502,0.788242,0.872246,0.564427
0.758047,0.788151,0.872159,0.56437
0.757592,0.788061,0.872072,0.564314
0.757138,0.78797,0.871985,0.564257
0.756684,0.787879,0.871897,0.564201
0.75623,0.787789,0.87181,0.564144
0.755776,0.787698,0.871723,0.564088
0.755323,0.787608,0.871636,0.564032
0.754869,0.787517,0.871549,0.563975
0.754417,0.787426,0.871462,0.563919
0.753964,0.787336,0.871374,0.563862
0.753512,0.787245,0.871287,0.563806
0.75306,0.787155,0.8712,0.56375
0.752608,0.787064,0.871113,0.563693
0.752156,0.786974,0.871026,0.563637
0.752081,0.786883,0.870939,0.56358
0.752006,0.786793,0.896977,0.563524
0.751555,0.786702,0.896888,0.563468
0.751104,0.786612,0.896798,0.563411
0.750653,0.786522,0.896708,0.563355
0.750203,0.786431,0.896619,0.563299
0.749753,0.786341,0.896529,0.563242
0.749303,0.78625,0.896439,0.563186
0.748853,0.78616,0.89635,0.56313
0.748404,0.786069,0.89626,0.563073
0.748329,0.785979,0.89617,0.563017
0.748254,0.785889,0.922963,0.562961
0.747805,0.785798,0.922871,0.562905
0.747357,0.785708,0.922779,0.562848
0.746908,0.785618,0.922686,0.562792
0.74646,0.785527,0.922594,0.562736
0.746012,0.785437,0.922502,0.562679
0.745565,0.785347,0.922409,0.562623
0.745118,0.785256,0.922317,0.562567
0.744671,0.785166,0.922225,0.562511
0.744224,0.785076,0.922133,0.562454
0.743777,0.784986,0.922041,0.562398
0.743331,0.784895,0.921948,0.562342
0.742885,0.784805,0.921856,0.562286
0.742439,0.784715,0.921764,0.562229
0.741994,0.784625,0.921672,0.562173
0.741549,0.784534,0.92158,0.562117
0.741104,0.784444,0.921487,0.562061
0.740659,0.784354,0.921395,0.562005
0.740215,0.784264,0.921303,0.561948
0.739771,0.784174,0.921211,0.561892
0.739327,0.784083,0.921119,0.561836
0.738883,0.783993,0.921027,0.56178
0.73844,0.783903,0.920935,0.561724
0.737997,0.783813,0.920843,0.561667
0.737923,0.783723,0.920751,0.561611
0.73785,0.783633,0.948278,0.561555
0.737407,0.783543,0.948183,0.561499
0.736964,0.783453,0.948089,0.561443
0.736522,0.783363,0.947994,0.561387
0.73608,0.783272,0.947899,0.561331
0.735639,0.783182,0.947804,0.561274
0.735197,0.783092,0.947709,0.561218
0.734756,0.783002,0.947615,0.561162
0.734316,0.782912,0.94752,0.561106
0.733875,0.782822,0.947425,0.56105
0.733435,0.782732,0.94733,0.560994
0.732995,0.782642,0.947236,0.560938
0.732555,0.782552,0.947141,0.560882
0.732115,0.782462,0.947046,0.560826
0.731676,0.782372,0.946951,0.560769
0.731237,0.782282,0.946857,0.560713
0.730799,0.782192,0.946762,0.560657
0.73036,0.782103,0.946667,0.560601
0.729922,0.782013,0.946573,0.560545
0.729484,0.781923,0.946478,0.560489
0.729046,0.781833,0.946383,0.560433
0.728609,0.781743,0.946289,0.560377
0.728172,0.781653,0.946194,0.560321
0.727735,0.781563,0.9461,0.560265
0.727298,0.781473,0.946005,0.560209
0.726862,0.781383,0.94591,0.560153
0.726426,0.781294,0.945816,0.560097
0.726353,0.781204,0.945721,0.560041
0.726281,0.781114,0.973995,0.559985
0.725845,0.781024,0.973898,0.559929
0.725409,0.780934,0.973801,0.559873
0.724974,0.780845,0.973703,0.559817
0.724539,0.780755,0.973606,0.559761
0.724105,0.780665,0.973509,0.559705
0.72367,0.780575,0.973411,0.559649
0.723236,0.780485,0.973314,0.559593
0.722802,0.780396,0.973217,0.559537
0.722368,0.780306,0.973119,0.559481
0.721935,0.780216,0.973022,0.559425
0.721502,0.780127,0.972925,0.559369
0.721069,0.780037,0.972827,0.559313
0.720637,0.779947,0.97273,0.559257
0.720204,0.779857,0.972633,0.559201
0.719772,0.779768,0.972535,0.559145
0.71934,0.779678,0.972438,0.55909
0.718909,0.779589,0.972341,0.559034
0.718477,0.779499,0.972244,0.558978
0.718046,0.779409,0.972146,0.558922
0.717616,0.77932,0.972049,0.558866
0.717544,0.77923,0.971952,0.55881
0.717472,0.77914,1,0.558754
0.717042,0.779051,0.9999,0.558698
0.716611,0.778961,0.9998,0.558642
0.716181,0.778872,0.9997,0.558587
0.715752,0.778782,0.9996,0.558531
0.715322,0.778693,0.9995,0.558475
0.714893,0.778603,0.9994,0.558419
0.714822,0.778514,0.9993,0.558363
0.71475,0.778424,1,0.558307
0.714321,0.778335,0.9999,0.558252
0.713893,0.778245,0.9998,0.558196
0.713465,0.778156,0.9997,0.55814
0.713037,0.778066,0.9996,0.558084
0.712609,0.777977,0.9995,0.558028
0.712181,0.777887,0.9994,0.557972
0.711754,0.777798,0.9993,0.557917
0.711327,0.777708,0.9992,0.557861
0.7109,0.777619,0.9991,0.557805
0.710474,0.777529,0.999,0.557749
0.710047,0.77744,0.998901,0.557694
0.709621,0.777351,0.998801,0.557638
0.709196,0.777261,0.998701,0.557582
0.70877,0.777172,0.998601,0.557526
0.708345,0.777083,0.998501,0.55747
0.70792,0.776993,0.998401,0.557415
0.707495,0.776904,0.998301,0.557359
0.707425,0.776815,0.998202,0.557303
0.707354,0.776725,1,0.557248
0.706929,0.776636,0.9999,0.557192
0.706505,0.776547,0.9998,0.557136
0.706081,0.776457,0.9997,0.55708
0.705658,0.776368,0.9996,0.557025
0.705234,0.776279,0.9995,0.556969
0.704811,0.77619,0.9994,0.556913
0.704388,0.7761,0.9993,0.556858
0.703966,0.776011,0.9992,0.556802
0.703544,0.775922,0.9991,0.556746
0.703121,0.775833,0.999,0.556691
0.7027,0.775743,0.998901,0.556635
0.702278,0.775654,0.998801,0.556579
0.701857,0.775565,0.998701,0.556524
0.701436,0.775476,0.998601,0.556468
0.701015,0.775387,0.998501,0.556412
0.700594,0.775298,0.998401,0.556357
0.700174,0.775208,0.998301,0.556301
0.699754,0.775119,0.998202,0.556245
0.699334,0.77503,0.998102,0.55619
0.698914,0.774941,0.998002,0.556134
0.698495,0.774852,0.997902,0.556078
0.698076,0.774763,0.997802,0.556023
0.697657,0.774674,0.997703,0.555967
0.697239,0.774585,0.997603,0.555912
0.69682,0.774496,0.997503,0.555856
0.696402,0.774407,0.997403,0.5558
0.695985,0.774318,0.997304,0.555745
0.695567,0.774229,0.997204,0.555689
0.69515,0.77414,0.997104,0.555634
0.694733,0.774051,0.997004,0.555578
0.694316,0.773962,0.996905,0.555523
0.693899,0.773873,0.996805,0.555467
0.693483,0.773784,0.996705,0.555412
0.693067,0.773695,0.996606,0.555356
0.692651,0.773606,0.996506,0.5553
0.692236,0.773517,0.996406,0.555245
0.69182,0.773428,0.996307,0.555189
0.691405,0.773339,0.996207,0.555134
0.69099,0.77325,0.996107,0.555078
0.690576,0.773161,0.996008,0.555023
0.690161,0.773072,0.995908,0.554967
0.689747,0.772983,0.995809,0.554912
0.689334,0.772894,0.995709,0.554856
0.68892,0.772805,0.995609,0.554801
0.688507,0.772717,0.99551,0.554745
0.688094,0.772628,0.99541,0.55469
0.687681,0.772539,0.995311,0.554634
0.687268,0.77245,0.995211,0.554579
0.686856,0.772361,0.995112,0.554524
0.686444,0.772272,0.995012,0.554468
0.686032,0.772184,0.994913,0.554413
0.68562,0.772095,0.994813,0.554357
0.685209,0.772006,0.994714,0.554302
0.684798,0.771917,0.994614,0.554246
0.684387,0.771829,0.994515,0.554191
0.683977,0.77174,0.994415,0.554136
0.683566,0.771651,0.994316,0.55408
0.683156,0.771562,0.994216,0.554025
0.682746,0.771474,0.994117,0.553969
0.682337,0.771385,0.994018,0.553914
0.681927,0.771296,0.993918,0.553858
0.681518,0.771208,0.993819,0.553803
0.68145,0.771119,0.993719,0.553748
0.681382,0.77103,0.99362,0.553692
0.681314,0.770942,0.993521,0.553637
0.681246,0.770853,0.993421,0.553582
0.681177,0.770764,0.993322,0.553526
0.681109,0.770676,0.993223,0.553471
0.681041,0.770587,0.993123,0.553416
0.680973,0.770499,0.993024,0.55336
0.680905,0.77041,0.992925,0.553305
0.680837,0.770321,0.992826,0.55325
0.680769,0.770233,0.992726,0.553194
0.680701,0.770144,0.992627,0.553139
0.680633,0.770056,0.992528,0.553084
0.680565,0.769967,0.992428,0.553028
0.680497,0.769879,0.992329,0.552973
0.680429,0.76979,0.99223,0.552918
0.68036,0.769702,0.992131,0.552862
0.680292,0.769613,0.992032,0.552807
0.680224,0.769525,0.991932,0.552752
0.680156,0.769436,0.991833,0.552697
0.680088,0.769348,0.991734,0.552641
0.68002,0.769259,0.991635,0.552586
0.679952,0.769171,0.991536,0.552531
0.679884,0.769082,0.991436,0.552476
0.679816,0.768994,0.991337,0.55242
0.679748,0.768905,0.991238,0.552365
0.67968,0.768817,0.991139,0.55231
0.679612,0.768729,0.99104,0.552255
0.679545,0.76864,0.990941,0.552199
0.679477,0.768552,0.990842,0.552144
0.679409,0.768463,0.990743,0.552089
0.679341,0.768375,0.990644,0.552034
0.679273,0.768287,0.990545,0.551978
0.679205,0.768198,0.990445,0.551923
0.679137,0.76811,0.990346,0.551868
0.679069,0.768022,0.990247,0.551813
0.679001,0.767934,0.990148,0.551758
0.678933,0.767845,0.990049,0.551703
0.678865,0.767757,0.98995,0.551647
0.678797,0.767669,0.989851,0.551592
0.678729,0.76758,0.989752,0.551537
0.678662,0.767492,0.989653,0.551482
0.678594,0.767404,0.989554,0.551427
0.678526,0.767316,0.989455,0.551372
0.678458,0.767227,0.989357,0.551316
0.67839,0.767139,0.989258,0.551261
0.678322,0.767051,0.989159,0.551206
0.678255,0.766963,0.98906,0.551151
0.678187,0.766875,0.988961,0.551096
0.678119,0.766786,0.988862,0.551041
0.678051,0.766698,0.988763,0.550986
0.67778,0.767377,0.988269,0.550931
0.677509,0.768056,0.987775,0.550876
0.677238,0.768735,0.987281,0.55082
0.676967,0.769416,0.986787,0.550765
0.676696,0.770097,0.986294,0.55071
0.676425,0.770778,0.985801,0.550655
0.676155,0.77146,0.985308,0.5506
0.675885,0.772143,0.984815,0.550545
0.675614,0.772826,0.984323,0.55049
0.675344,0.77351,0.983831,0.550435
0.675074,0.774194,0.983339,0.55038
0.674804,0.774879,0.982847,0.550325
0.674534,0.775565,0.982356,0.55027
0.674264,0.776251,0.981865,0.550215
0.673994,0.776938,0.981374,0.55016
0.673725,0.777626,0.980883,0.550105
0.673455,0.778314,0.980393,0.55005
0.673186,0.779003,0.979903,0.549995
0.672917,0.779692,0.979413,0.54994
0.672648,0.780382,0.978923,0.549885
0.672379,0.781073,0.978434,0.54983
0.67211,0.781764,0.977944,0.549775
0.671841,0.782456,0.977455,0.54972
0.671572,0.783148,0.976967,0.549665
0.671304,0.783841,0.976478,0.54961
0.671035,0.784535,0.97599,0.549555
0.670767,0.785229,0.975502,0.5495
0.670498,0.785924,0.975014,0.549445
0.67023,0.786619,0.974527,0.54939
0.669962,0.787315,0.97404,0.549335
0.669694,0.788012,0.973553,0.54928
0.669426,0.788709,0.973066,0.549225
0.669159,0.789407,0.97258,0.54917
0.668891,0.790106,0.972093,0.549116
0.668623,0.790805,0.971607,0.549061
0.668356,0.791505,0.971122,0.549006
0.668089,0.792205,0.970636,0.548951
0.667821,0.792906,0.970151,0.548896
0.667554,0.793608,0.969666,0.548841
0.667287,0.79431,0.969181,0.548786
0.66702,0.795013,0.968696,0.548731
0.666754,0.795717,0.968212,0.548676
0.666487,0.796421,0.967728,0.548621
0.66622,0.797125,0.967244,0.548567
0.665954,0.797831,0.966761,0.548512
0.665687,0.798537,0.966277,0.548457
0.665421,0.799243,0.965794,0.548402
0.665155,0.799951,0.965311,0.548347
0.664889,0.800659,0.964829,0.548292
0.664623,0.801367,0.964346,0.548238
0.664357,0.802076,0.963864,0.548183
0.664092,0.802786,0.963382,0.548128
0.663826,0.803496,0.962901,0.548073
0.66356,0.804207,0.962419,0.548018
0.663295,0.804919,0.961938,0.547964
0.66303,0.805631,0.961457,0.547909
0.662765,0.806344,0.960976,0.547854
0.662499,0.807058,0.960496,0.547799
0.662234,0.807772,0.960016,0.547744
0.66197,0.808487,0.959536,0.54769
0.661705,0.809202,0.959056,0.547635
0.66144,0.809918,0.958577,0.54758
0.661176,0.810635,0.958097,0.547525
0.660911,0.811352,0.957618,0.547471
0.660647,0.81207,0.95714,0.547416
0.660383,0.812789,0.956661,0.547361
0.660118,0.813508,0.956183,0.547306
0.659854,0.814228,0.955705,0.547252
0.65959,0.814948,0.955227,0.547197
0.659327,0.81567,0.954749,0.547142
0.659063,0.816391,0.954272,0.547087
0.658799,0.817114,0.953795,0.547033
0.658536,0.817837,0.953318,0.546978
0.658272,0.818561,0.952841,0.546923
0.658009,0.819285,0.952365,0.546869
0.657746,0.82001,0.951889,0.546814
0.657483,0.820736,0.951413,0.546759
0.65722,0.821462,0.950937,0.546705
0.656957,0.822189,0.950462,0.54665
0.656694,0.822916,0.949987,0.546595
0.656432,0.823645,0.949512,0.546541
0.656169,0.824373,0.949037,0.546486
0.655907,0.825103,0.948562,0.546431
0.655644,0.825833,0.948088,0.546377
0.655382,0.826564,0.947614,0.546322
0.65512,0.827295,0.94714,0.546267
0.654858,0.828027,0.946667,0.546213
0.654596,0.82876,0.946194,0.546158
0.654334,0.829493,0.945721,0.546104
0.654072,0.830227,0.945248,0.546049
0.653811,0.830962,0.944775,0.545994
0.653549,0.831697,0.944303,0.54594
0.653288,0.832433,0.943831,0.545885
0.653027,0.83317,0.943359,0.545831
0.652765,0.833907,0.942887,0.545776
0.652504,0.834645,0.942416,0.545721
0.652243,0.835384,0.941945,0.545667
0.651982,0.836123,0.941474,0.545612
0.651722,0.836863,0.941003,0.545558
0.651461,0.837604,0.940533,0.545503
0.6512,0.838345,0.940062,0.545449
0.65094,0.839087,0.939592,0.545394
0.65068,0.839829,0.939123,0.545339
0.650419,0.840572,0.938653,0.545285
0.650159,0.841316,0.938184,0.54523
0.649899,0.842061,0.937715,0.545176
0.649639,0.842806,0.937246,0.545121
0.649379,0.843552,0.936777,0.545067
0.64912,0.844298,0.936309,0.545012
0.64886,0.845045,0.935841,0.544958
0.648601,0.845793,0.935373,0.544903
0.648341,0.846541,0.934905,0.544849
0.648082,0.84729,0.934438,0.544794
0.647823,0.84804,0.933971,0.54474
0.647564,0.848791,0.933504,0.544685
0.647304,0.849542,0.933037,0.544631
0.647046,0.850294,0.932571,0.544576
0.646787,0.851046,0.932104,0.544522
0.646528,0.851799,0.931638,0.544468
0.64627,0.852553,0.931172,0.544413
0.646011,0.853307,0.930707,0.544359
0.645753,0.854062,0.930242,0.544304
0.645494,0.854818,0.929777,0.54425
0.645236,0.855575,0.929312,0.544195
0.644978,0.856332,0.928847,0.544141
0.64472,0.857089,0.928383,0.544087
0.644462,0.857848,0.927919,0.544032
0.644204,0.858607,0.927455,0.543978
0.643947,0.859367,0.926991,0.543923
0.643689,0.860127,0.926527,0.543869
0.643432,0.860888,0.926064,0.543815
0.643174,0.86165,0.925601,0.54376
0.642917,0.862413,0.925138,0.543706
0.64266,0.863176,0.924676,0.543651
0.642403,0.86394,0.924214,0.543597
0.642146,0.864704,0.923752,0.543543
0.641889,0.865469,0.92329,0.543488
0.641633,0.866235,0.922828,0.543434
0.641376,0.867002,0.922367,0.54338
0.641119,0.867769,0.921906,0.543325
0.640863,0.868537,0.921445,0.543271
0.640607,0.869305,0.920984,0.543217
0.64035,0.870075,0.920524,0.543162
0.640094,0.870845,0.920063,0.543108
0.639838,0.871615,0.919603,0.543054
0.639582,0.872386,0.919144,0.542999
0.639326,0.873158,0.918684,0.542945
0.639071,0.873931,0.918225,0.542891
0.638815,0.874704,0.917766,0.542837
0.63856,0.875478,0.917307,0.542782
0.638304,0.876253,0.916848,0.542728
0.638049,0.877029,0.91639,0.542674
0.637794,0.877805,0.915932,0.542619
0.637539,0.878581,0.915474,0.542565
0.637284,0.879359,0.915016,0.542511
