energy,productivity,fun,hunger
0.565666,0.855139,0.646408,0.826018
0.565609,0.855083,0.665734,0.825935
0.56527,0.855028,0.685637,0.825853
0.564931,0.854972,0.706136,0.82577
0.564592,0.854917,0.727247,0.825688
0.564253,0.854861,0.727174,0.825605
0.563915,0.854805,0.727101,0.825523
0.563576,0.85475,0.727029,0.82544
0.563238,0.854694,0.726956,0.825357
0.5629,0.854639,0.726883,0.825275
0.562563,0.854583,0.726811,0.825192
0.562225,0.854527,0.726738,0.82511
0.561888,0.854472,0.726665,0.825027
0.561551,0.854416,0.726593,0.824945
0.561214,0.854361,0.72652,0.824862
0.560877,0.854305,0.726447,0.82478
0.560541,0.85425,0.726375,0.824697
0.560204,0.854194,0.726302,0.824615
0.559868,0.854139,0.726229,0.824532
0.559532,0.854083,0.726157,0.82445
0.559197,0.854027,0.726084,0.824368
0.558861,0.853972,0.726012,0.824285
0.558526,0.853916,0.725939,0.824203
0.558191,0.853861,0.725866,0.82412
0.557856,0.853805,0.725794,0.824038
0.557521,0.85375,0.725721,0.823955
0.557187,0.853694,0.725649,0.823873
0.556853,0.853639,0.725576,0.823791
0.556518,0.853583,0.725503,0.823708
0.556185,0.853528,0.725431,0.823626
0.555851,0.853472,0.725358,0.823544
0.555517,0.853417,0.725286,0.823461
0.555184,0.853361,0.725213,0.823379
0.554851,0.853306,0.725141,0.823297
0.554518,0.85325,0.725068,0.823214
0.554185,0.853195,0.724996,0.823132
0.553853,0.853139,0.724923,0.82305
0.553521,0.853084,0.724851,0.822967
0.553189,0.853028,0.724778,0.822885
0.553133,0.852973,0.724706,0.822803
0.553078,0.852918,0.724633,0.82272
0.553023,0.852862,0.724561,0.822638
0.552967,0.852807,0.724488,0.822556
0.552912,0.852751,0.724416,0.822474
0.552857,0.852696,0.724344,0.822391
0.552801,0.85264,0.724271,0.822309
0.552746,0.852585,0.724199,0.822227
0.552691,0.852529,0.724126,0.822145
0.552636,0.852474,0.724054,0.822062
0.55258,0.852418,0.723981,0.82198
0.552525,0.852363,0.723909,0.821898
0.55247,0.852308,0.723837,0.821816
0.552415,0.852252,0.723764,0.821734
0.552359,0.852197,0.723692,0.821651
0.552304,0.852141,0.72362,0.821569
0.552249,0.852086,0.723547,0.821487
0.552194,0.852031,0.723475,0.821405
0.552138,0.851975,0.723402,0.821323
0.552083,0.85192,0.72333,0.821241
0.552028,0.851864,0.723258,0.821159
0.551973,0.851809,0.723185,0.821077
0.551918,0.851754,0.723113,0.820994
0.551862,0.851698,0.723041,0.820912
0.551807,0.851643,0.722969,0.82083
0.551752,0.851587,0.722896,0.820748
0.551697,0.851532,0.722824,0.820666
0.551642,0.851477,0.722752,0.820584
0.551587,0.851421,0.722679,0.820502
0.551531,0.851366,0.722607,0.82042
0.551476,0.851311,0.722535,0.820338
0.551421,0.851255,0.722463,0.820256
0.551366,0.8512,0.72239,0.820174
0.551311,0.851145,0.722318,0.820092
0.551256,0.851089,0.722246,0.82001
0.551201,0.851034,0.722174,0.819928
0.551145,0.850979,0.722101,0.819846
0.55109,0.850923,0.722029,0.819764
0.551035,0.850868,0.721957,0.819682
0.55098,0.850813,0.721885,0.8196
0.550925,0.850757,0.721813,0.819518
0.55087,0.850702,0.72174,0.819436
0.550815,0.850647,0.721668,0.819354
0.55076,0.850591,0.721596,0.819272
0.550705,0.850536,0.721524,0.81919
0.55065,0.850481,0.721452,0.819108
0.550595,0.850425,0.72138,0.819026
0.55054,0.85037,0.721308,0.818944
0.550484,0.850315,0.721235,0.818862
0.550429,0.850259,0.721163,0.818781
0.550374,0.850204,0.721091,0.818699
0.550319,0.850149,0.721019,0.818617
0.550264,0.850094,0.720947,0.818535
0.550209,0.850038,0.720875,0.818453
0.550154,0.849983,0.720803,0.818371
0.550099,0.849928,0.720731,0.818289
0.550044,0.849872,0.720659,0.818208
0.549989,0.849817,0.720587,0.818126
0.549934,0.849762,0.720514,0.818044
0.549879,0.849707,0.720442,0.817962
0.549824,0.849651,0.72037,0.81788
0.549769,0.849596,0.720298,0.817799
0.549714,0.849541,0.720226,0.817717
0.549659,0.849486,0.720154,0.817635
0.549604,0.84943,0.720082,0.817553
0.549549,0.849375,0.72001,0.817472
0.549494,0.84932,0.719938,0.81739
0.549439,0.849265,0.719866,0.817308
0.549385,0.84921,0.719794,0.817226
0.54933,0.849154,0.719722,0.817145
0.549275,0.849099,0.71965,0.817063
0.54922,0.849044,0.719578,0.816981
0.549165,0.848989,0.719506,0.816899
0.54911,0.848934,0.719434,0.816818
0.549055,0.848878,0.719363,0.816736
0.549,0.848823,0.719291,0.816654
0.548945,0.848768,0.719219,0.816573
0.54889,0.848713,0.719147,0.816491
0.548835,0.848658,0.719075,0.816409
0.548781,0.848602,0.719003,0.816328
0.548726,0.848547,0.718931,0.816246
0.548671,0.848492,0.718859,0.816165
0.548616,0.848437,0.718787,0.816083
0.548561,0.848382,0.718715,0.816001
0.548506,0.848326,0.718643,0.81592
0.548451,0.848271,0.718572,0.815838
0.548397,0.848216,0.7185,0.815757
0.548342,0.848161,0.718428,0.815675
0.548287,0.848106,0.718356,0.815593
0.548232,0.848051,0.718284,0.815512
0.548177,0.847996,0.718212,0.81543
0.548122,0.84794,0.718141,0.815349
0.548068,0.847885,0.718069,0.815267
0.548013,0.84783,0.717997,0.815186
0.547958,0.847775,0.717925,0.815104
0.547903,0.84772,0.717853,0.815023
0.547848,0.847665,0.717782,0.814941
0.547794,0.84761,0.71771,0.81486
0.547739,0.847555,0.717638,0.814778
0.547684,0.847499,0.717566,0.814697
0.547629,0.847444,0.717495,0.814615
0.547574,0.847389,0.717423,0.814534
0.54752,0.847334,0.717351,0.814452
0.547465,0.847279,0.717279,0.814371
0.54741,0.847224,0.717208,0.814289
0.547355,0.847169,0.717136,0.814208
0.547301,0.847114,0.717064,0.814127
0.547246,0.847059,0.716992,0.814045
0.547191,0.847004,0.716921,0.813964
0.547137,0.846948,0.716849,0.813882
0.547082,0.846893,0.716777,0.813801
0.547027,0.846838,0.716706,0.81372
0.546972,0.846783,0.716634,0.813638
0.546918,0.846728,0.716562,0.813557
0.546863,0.846673,0.716491,0.813476
0.546808,0.846618,0.716419,0.813394
0.546754,0.846563,0.716347,0.813313
0.546699,0.846508,0.716276,0.813232
0.546644,0.846453,0.716204,0.81315
0.54659,0.846398,0.716133,0.813069
0.546535,0.846343,0.716061,0.812988
0.54648,0.846288,0.715989,0.812906
0.546426,0.846233,0.715918,0.812825
0.546371,0.846178,0.715846,0.812744
0.546316,0.846123,0.715775,0.812662
0.546262,0.846068,0.715703,0.812581
0.546207,0.846013,0.715631,0.8125
0.546153,0.845958,0.71556,0.812419
0.546098,0.845903,0.715488,0.812337
0.546043,0.845848,0.715417,0.812256
0.545989,0.845793,0.715345,0.812175
0.545934,0.845738,0.715274,0.812094
0.54588,0.845683,0.715202,0.812013
0.545825,0.845628,0.715131,0.811931
0.54577,0.845573,0.715059,0.81185
0.545716,0.845518,0.714988,0.811769
0.545661,0.845463,0.714916,0.811688
0.545607,0.845408,0.714845,0.811607
0.545552,0.845353,0.714773,0.811525
0.545498,0.845298,0.714702,0.811444
0.545443,0.845243,0.71463,0.811363
0.545388,0.845188,0.714559,0.811282
0.545334,0.845133,0.714487,0.811201
0.545279,0.845078,0.714416,0.81112
0.545225,0.845023,0.714344,0.811039
0.54517,0.844968,0.714273,0.810958
0.545116,0.844913,0.714201,0.810876
0.545061,0.844858,0.71413,0.810795
0.545007,0.844803,0.714059,0.810714
0.544952,0.844748,0.713987,0.810633
0.544898,0.844693,0.713916,0.810552
0.544843,0.844639,0.713844,0.810471
0.544789,0.844584,0.713773,0.81039
0.544734,0.844529,0.713702,0.810309
0.54468,0.844474,0.71363,0.810228
0.544625,0.844419,0.713559,0.810147
0.544571,0.844364,0.713488,0.810066
0.544516,0.844309,0.713416,0.809985
0.544462,0.844254,0.713345,0.809904
0.544408,0.844199,0.713274,0.809823
0.544353,0.844144,0.713202,0.809742
0.544299,0.844089,0.713131,0.809661
0.544244,0.844035,0.71306,0.80958
0.54419,0.84398,0.712988,0.809499
0.544135,0.843925,0.712917,0.809418
0.544081,0.84387,0.712846,0.809337
0.544027,0.843815,0.712774,0.809256
0.543972,0.84376,0.712703,0.809175
0.543918,0.843705,0.712632,0.809094
0.543863,0.84365,0.712561,0.809013
0.543809,0.843596,0.712489,0.808933
0.543755,0.843541,0.712418,0.808852
0.5437,0.843486,0.712347,0.808771
0.543646,0.843431,0.712276,0.80869
0.543592,0.843376,0.712204,0.808609
0.543537,0.843321,0.712133,0.808528
0.543483,0.843267,0.712062,0.808447
0.543428,0.843212,0.711991,0.808366
0.543374,0.843157,0.71192,0.808286
0.54332,0.843102,0.711848,0.808205
0.543265,0.843047,0.711777,0.808124
0.543211,0.842992,0.711706,0.808043
0.543157,0.842938,0.711635,0.807962
0.543103,0.842883,0.711564,0.807882
0.543048,0.842828,0.711493,0.807801
0.542994,0.842773,0.711421,0.80772
0.54294,0.842718,0.71135,0.807639
0.542885,0.842664,0.711279,0.807558
0.542831,0.842609,0.711208,0.807478
0.542777,0.842554,0.711137,0.807397
0.542722,0.842499,0.711066,0.807316
0.542668,0.842444,0.710995,0.807236
0.542614,0.84239,0.710924,0.807155
0.54256,0.842335,0.710852,0.807074
0.542505,0.84228,0.710781,0.806993
0.542451,0.842225,0.71071,0.806913
0.542397,0.842171,0.710639,0.806832
0.542343,0.842116,0.710568,0.806751
0.542288,0.842061,0.710497,0.806671
0.542234,0.842006,0.710426,0.80659
0.54218,0.841951,0.710355,0.806509
0.542126,0.841897,0.731592,0.806429
0.541801,0.841842,0.731519,0.806348
0.541475,0.841787,0.731446,0.806267
0.541151,0.841733,0.731373,0.806187
0.540826,0.841678,0.7313,0.806106
0.540501,0.841623,0.731227,0.806025
0.540177,0.841568,0.731154,0.805945
0.539853,0.841514,0.731081,0.805864
0.539529,0.841459,0.731007,0.805784
0.539206,0.841404,0.730934,0.805703
0.538882,0.841349,0.730861,0.805623
0.538559,0.841295,0.730788,0.805542
0.538236,0.84124,0.730715,0.805461
0.537913,0.841185,0.730642,0.805381
0.53759,0.841131,0.730569,0.8053
0.537267,0.841076,0.730496,0.80522
0.536945,0.841021,0.730423,0.805139
0.536623,0.840967,0.73035,0.805059
0.536301,0.840912,0.730277,0.804978
0.535979,0.840857,0.730204,0.804898
0.535658,0.840803,0.730131,0.804817
0.535336,0.840748,0.730058,0.804737
0.535015,0.840693,0.729985,0.804656
0.534694,0.840639,0.729912,0.804576
0.534373,0.840584,0.729839,0.804495
0.534053,0.840529,0.729766,0.804415
0.533732,0.840475,0.729693,0.804335
0.533679,0.84042,0.72962,0.804254
0.533626,0.840365,0.729547,0.804174
0.533572,0.840311,0.729474,0.804093
0.533519,0.840256,0.729401,0.804013
0.533466,0.840201,0.729328,0.803932
0.533412,0.840147,0.729255,0.803852
0.533359,0.840092,0.729182,0.803772
0.533306,0.840037,0.729109,0.803691
0.533252,0.839983,0.729036,0.803611
0.533199,0.839928,0.728963,0.803531
0.533146,0.839874,0.72889,0.80345
0.533092,0.839819,0.728818,0.80337
0.533039,0.839764,0.728745,0.80329
0.532986,0.83971,0.728672,0.803209
0.532932,0.839655,0.728599,0.803129
0.532879,0.839601,0.728526,0.803049
0.532826,0.839546,0.728453,0.802968
0.532773,0.839491,0.72838,0.802888
0.532719,0.839437,0.728308,0.802808
0.532666,0.839382,0.728235,0.802727
0.532613,0.839328,0.728162,0.802647
0.532559,0.839273,0.728089,0.802567
0.532506,0.839218,0.728016,0.802487
0.532453,0.839164,0.727943,0.802406
0.5324,0.839109,0.727871,0.802326
0.532346,0.839055,0.727798,0.802246
0.532293,0.839,0.727725,0.802166
0.53224,0.838946,0.727652,0.802085
0.532187,0.838891,0.72758,0.802005
0.532134,0.838837,0.727507,0.801925
0.53208,0.838782,0.727434,0.801845
0.532027,0.838727,0.727361,0.801765
0.531974,0.838673,0.727289,0.801684
0.531921,0.838618,0.727216,0.801604
0.531868,0.838564,0.727143,0.801524
0.531814,0.838509,0.72707,0.801444
0.531761,0.838455,0.726998,0.801364
0.531708,0.8384,0.726925,0.801284
0.531655,0.838346,0.726852,0.801204
0.531602,0.838291,0.72678,0.801123
0.531548,0.838237,0.726707,0.801043
0.531495,0.838182,0.726634,0.800963
0.531442,0.838128,0.726562,0.800883
0.531389,0.838073,0.726489,0.800803
0.531336,0.838019,0.726416,0.800723
0.531283,0.837964,0.726344,0.800643
0.53123,0.83791,0.726271,0.800563
0.531177,0.837855,0.726198,0.800483
0.531123,0.837801,0.726126,0.800403
0.53107,0.837746,0.726053,0.800323
0.531017,0.837692,0.725981,0.800243
0.530964,0.837637,0.725908,0.800163
0.530911,0.837583,0.725835,0.800083
0.530858,0.837528,0.725763,0.800003
0.530805,0.837474,0.72569,0.799923
0.530752,0.837419,0.725618,0.799843
0.530699,0.837365,0.725545,0.799763
0.530646,0.837311,0.725473,0.799683
0.530593,0.837256,0.7254,0.799603
0.530539,0.837202,0.725327,0.799523
0.530486,0.837147,0.725255,0.799443
0.530433,0.837093,0.725182,0.799363
0.53038,0.837038,0.72511,0.799283
0.530327,0.836984,0.725037,0.799203
0.530274,0.83693,0.724965,0.799123
0.530221,0.836875,0.724892,0.799043
0.530168,0.836821,0.72482,0.798963
0.530115,0.836766,0.724747,0.798883
0.530062,0.836712,0.724675,0.798803
0.530009,0.836657,0.724602,0.798724
0.529956,0.836603,0.72453,0.798644
0.529903,0.836549,0.724458,0.798564
0.52985,0.836494,0.724385,0.798484
0.529797,0.83644,0.724313,0.798404
0.529744,0.836385,0.72424,0.798324
0.529691,0.836331,0.724168,0.798244
0.529638,0.836277,0.724095,0.798165
0.529585,0.836222,0.724023,0.798085
0.529532,0.836168,0.723951,0.798005
0.529479,0.836114,0.723878,0.797925
0.529426,0.836059,0.723806,0.797845
0.529373,0.836005,0.723733,0.797766
0.529321,0.83595,0.723661,0.797686
0.529268,0.835896,0.723589,0.797606
0.529215,0.835842,0.723516,0.797526
0.529162,0.835787,0.723444,0.797447
0.529109,0.835733,0.723372,0.797367
0.529056,0.835679,0.723299,0.797287
0.529003,0.835624,0.723227,0.797207
0.52895,0.83557,0.723155,0.797128
0.528897,0.835516,0.723082,0.797048
0.528844,0.835461,0.72301,0.796968
0.528791,0.835407,0.722938,0.796889
0.528739,0.835353,0.722865,0.796809
0.528686,0.835298,0.722793,0.796729
0.528633,0.835244,0.722721,0.796649
0.52858,0.83519,0.722649,0.79657
0.528527,0.835135,0.722576,0.79649
0.528474,0.835081,0.722504,0.796411
0.528421,0.835027,0.722432,0.796331
0.528369,0.834973,0.72236,0.796251
0.528316,0.834918,0.722287,0.796172
0.528263,0.834864,0.722215,0.796092
0.52821,0.83481,0.722143,0.796012
0.528157,0.834755,0.722071,0.795933
0.528104,0.834701,0.721998,0.795853
0.528052,0.834647,0.721926,0.795774
0.527999,0.834593,0.721854,0.795694
0.527946,0.834538,0.721782,0.795614
0.527893,0.834484,0.72171,0.795535
0.52784,0.83443,0.721637,0.795455
0.527788,0.834376,0.721565,0.795376
0.527735,0.834321,0.721493,0.795296
0.527682,0.834267,0.721421,0.795217
0.527629,0.834213,0.721349,0.795137
0.527577,0.834159,0.721277,0.795058
0.527524,0.834104,0.721205,0.794978
0.527471,0.83405,0.721133,0.794899
0.527418,0.833996,0.72106,0.794819
0.527366,0.833942,0.720988,0.79474
0.527313,0.833887,0.720916,0.79466
0.52726,0.833833,0.720844,0.794581
0.527207,0.833779,0.720772,0.794501
0.527155,0.833725,0.7207,0.794422
0.527102,0.83367,0.720628,0.794342
0.527049,0.833616,0.720556,0.794263
0.526997,0.833562,0.720484,0.794184
0.526944,0.833508,0.720412,0.794104
0.526891,0.833454,0.72034,0.794025
0.526838,0.833399,0.720268,0.793945
0.526786,0.833345,0.720196,0.793866
0.526733,0.833291,0.720124,0.793787
0.52668,0.833237,0.720052,0.793707
0.526628,0.833183,0.71998,0.793628
0.526575,0.833129,0.719908,0.793548
0.526522,0.833074,0.719836,0.793469
0.52647,0.83302,0.719764,0.79339
0.526417,0.832966,0.719692,0.79331
0.526364,0.832912,0.71962,0.793231
0.526312,0.832858,0.719548,0.793152
0.526259,0.832804,0.719476,0.793072
0.526207,0.832749,0.719404,0.792993
0.526154,0.832695,0.719332,0.792914
0.526101,0.832641,0.71926,0.792835
0.526049,0.832587,0.719188,0.792755
0.525996,0.832533,0.719116,0.792676
0.525944,0.832479,0.719044,0.792597
0.525891,0.832425,0.718972,0.792517
0.525838,0.83237,0.7189,0.792438
0.525786,0.832316,0.718828,0.792359
0.525733,0.832262,0.718757,0.79228
0.525681,0.832208,0.718685,0.7922
0.525628,0.832154,0.718613,0.792121
0.525575,0.8321,0.718541,0.792042
0.525523,0.832046,0.718469,0.791963
0.52547,0.831992,0.718397,0.791884
0.525418,0.831938,0.718325,0.791804
0.525365,0.831883,0.718254,0.791725
0.525313,0.831829,0.718182,0.791646
0.52526,0.831775,0.71811,0.791567
0.525208,0.831721,0.718038,0.791488
0.525155,0.831667,0.717966,0.791409
0.525103,0.831613,0.717895,0.79133
0.52505,0.831559,0.717823,0.79125
0.524998,0.831505,0.717751,0.791171
0.524945,0.831451,0.717679,0.791092
0.524893,0.831397,0.717607,0.791013
0.52484,0.831343,0.717536,0.790934
0.524788,0.831289,0.717464,0.790855
0.524735,0.831235,0.717392,0.790776
0.524683,0.831181,0.71732,0.790697
0.52463,0.831126,0.717249,0.790618
0.524578,0.831072,0.717177,0.790539
0.524525,0.831018,0.717105,0.790459
0.524473,0.830964,0.717034,0.79038
0.52442,0.83091,0.716962,0.790301
0.524368,0.830856,0.71689,0.790222
0.524316,0.830802,0.716818,0.790143
0.524263,0.830748,0.716747,0.790064
0.524211,0.830694,0.716675,0.789985
0.524158,0.83064,0.716603,0.789906
0.524106,0.830586,0.716532,0.789827
0.524053,0.830532,0.71646,0.789748
0.524001,0.830478,0.716388,0.789669
0.523949,0.830424,0.716317,0.78959
0.523896,0.83037,0.716245,0.789511
0.523844,0.830316,0.716174,0.789433
0.523791,0.830262,0.716102,0.789354
0.523739,0.830208,0.71603,0.789275
0.523687,0.830154,0.715959,0.789196
0.523634,0.8301,0.715887,0.789117
0.523582,0.830046,0.715816,0.789038
0.52353,0.829992,0.715744,0.788959
0.523477,0.829938,0.715672,0.78888
0.523425,0.829884,0.715601,0.788801
0.523373,0.82983,0.715529,0.788722
0.52332,0.829776,0.715458,0.788643
0.523268,0.829722,0.715386,0.788565
0.523216,0.829668,0.715315,0.788486
0.523163,0.829615,0.715243,0.788407
0.523111,0.829561,0.715172,0.788328
0.523059,0.829507,0.7151,0.788249
0.523006,0.829453,0.715029,0.78817
0.522954,0.829399,0.714957,0.788092
0.522902,0.829345,0.714886,0.788013
0.522849,0.829291,0.714814,0.787934
0.522797,0.829237,0.714743,0.787855
0.522745,0.829183,0.714671,0.787776
0.522693,0.829129,0.7146,0.787698
0.52264,0.829075,0.714528,0.787619
0.522588,0.829021,0.714457,0.78754
0.522536,0.828967,0.714385,0.787461
0.522484,0.828914,0.714314,0.787383
0.522431,0.82886,0.714242,0.787304
0.522379,0.828806,0.714171,0.787225
0.522327,0.828752,0.7141,0.787146
0.522275,0.828698,0.714028,0.787068
0.522222,0.828644,0.713957,0.786989
0.52217,0.82859,0.713885,0.78691
0.522118,0.828536,0.713814,0.786832
0.522066,0.828482,0.713743,0.786753
0.522014,0.828429,0.713671,0.786674
0.521961,0.828375,0.7136,0.786596
0.521909,0.828321,0.713528,0.786517
0.521857,0.828267,0.713457,0.786438
0.521805,0.828213,0.713386,0.78636
0.521753,0.828159,0.713314,0.786281
0.5217,0.828105,0.713243,0.786202
0.521648,0.828052,0.713172,0.786124
0.521596,0.827998,0.7131,0.786045
0.521544,0.827944,0.713029,0.785966
0.521492,0.82789,0.712958,0.785888
0.52144,0.827836,0.712887,0.785809
0.521387,0.827782,0.712815,0.785731
0.521335,0.827729,0.712744,0.785652
0.521283,0.827675,0.712673,0.785574
0.521231,0.827621,0.712601,0.785495
0.521179,0.827567,0.71253,0.785416
0.521127,0.827513,0.712459,0.785338
0.521075,0.827459,0.712388,0.785259
0.521023,0.827406,0.712316,0.785181
0.52097,0.827352,0.712245,0.785102
0.520918,0.827298,0.712174,0.785024
0.520866,0.827244,0.712103,0.784945
0.520814,0.82719,0.712032,0.784867
0.520762,0.827137,0.71196,0.784788
0.52071,0.827083,0.711889,0.78471
0.520658,0.827029,0.711818,0.784631
0.520606,0.826975,0.711747,0.784553
0.520554,0.826922,0.711676,0.784474
0.520502,0.826868,0.711604,0.784396
0.52045,0.826814,0.711533,0.784318
0.520398,0.82676,0.711462,0.784239
0.520346,0.826706,0.711391,0.784161
0.520294,0.826653,0.71132,0.784082
0.520242,0.826599,0.711249,0.784004
0.52019,0.826545,0.711178,0.783925
0.520138,0.826491,0.711106,0.783847
0.520086,0.826438,0.711035,0.783769
0.520034,0.826384,0.710964,0.78369
0.519982,0.82633,0.710893,0.783612
0.51993,0.826277,0.710822,0.783534
0.519878,0.826223,0.710751,0.783455
0.519826,0.826169,0.71068,0.783377
0.519774,0.826115,0.710609,0.783299
0.519722,0.826062,0.710538,0.78322
0.51967,0.826008,0.710467,0.783142
0.519618,0.825954,0.710396,0.783064
0.519566,0.8259,0.731634,0.782985
0.519254,0.825847,0.731561,0.782907
0.518942,0.825793,0.731488,0.782829
0.518631,0.825739,0.731415,0.78275
0.51832,0.825686,0.731342,0.782672
0.518009,0.825632,0.731269,0.782594
0.517698,0.825578,0.731196,0.782516
0.517388,0.825525,0.731122,0.782437
0.517077,0.825471,0.731049,0.782359
0.516767,0.825417,0.730976,0.782281
0.516457,0.825364,0.730903,0.782203
0.516147,0.82531,0.73083,0.782124
0.515837,0.825256,0.730757,0.782046
0.515528,0.825203,0.730684,0.781968
0.515219,0.825149,0.730611,0.78189
0.51491,0.825095,0.730538,0.781812
0.514601,0.825042,0.730465,0.781733
0.514292,0.824988,0.730392,0.781655
0.513983,0.824934,0.730319,0.781577
0.513675,0.824881,0.730246,0.781499
0.513367,0.824827,0.730173,0.781421
0.513059,0.824773,0.7301,0.781343
0.512751,0.82472,0.730026,0.781265
0.512443,0.824666,0.729953,0.781186
0.512136,0.824613,0.729881,0.781108
0.511829,0.824559,0.729808,0.78103
