energy,productivity,fun,hunger
0.717901,0.835719,0.86681,0.489621
0.717829,0.835696,0.892725,0.489572
0.717399,0.835672,0.892635,0.489523
0.716968,0.835649,0.892546,0.489474
0.716538,0.835625,0.892457,0.489425
0.716108,0.835601,0.892367,0.489376
0.715678,0.835578,0.892278,0.489327
0.715249,0.835554,0.892189,0.489278
0.71482,0.83553,0.8921,0.489229
0.714391,0.835507,0.892011,0.48918
0.713963,0.835483,0.891921,0.489132
0.713534,0.83546,0.891832,0.489083
0.713106,0.835436,0.891743,0.489034
0.712678,0.835412,0.891654,0.488985
0.712251,0.835389,0.891565,0.488936
0.711823,0.835365,0.891476,0.488887
0.711396,0.835341,0.891386,0.488838
0.71097,0.835318,0.891297,0.488789
0.710543,0.835294,0.891208,0.48874
0.710117,0.835271,0.891119,0.488691
0.709691,0.835247,0.89103,0.488643
0.709265,0.835223,0.890941,0.488594
0.708839,0.8352,0.890852,0.488545
0.708414,0.835176,0.890763,0.488496
0.707989,0.835153,0.890674,0.488447
0.707564,0.835129,0.890584,0.488398
0.70714,0.835105,0.890495,0.48835
0.706716,0.835082,0.890406,0.488301
0.706292,0.835058,0.890317,0.488252
0.705868,0.835035,0.890228,0.488203
0.705444,0.835011,0.890139,0.488154
0.705021,0.834987,0.89005,0.488105
0.704598,0.834964,0.889961,0.488057
0.704175,0.83494,0.889872,0.488008
0.703753,0.834917,0.889783,0.487959
0.703683,0.834893,0.889694,0.48791
0.703612,0.834869,0.916293,0.487861
0.70319,0.834846,0.916202,0.487813
0.702768,0.834822,0.91611,0.487764
0.702347,0.834799,0.916019,0.487715
0.701925,0.834775,0.915927,0.487666
0.701504,0.834751,0.915835,0.487617
0.701083,0.834728,0.915744,0.487569
0.700663,0.834704,0.915652,0.48752
0.700242,0.834681,0.915561,0.487471
0.699822,0.834657,0.915469,0.487422
0.699402,0.834633,0.915378,0.487374
0.698983,0.83461,0.915286,0.487325
0.698563,0.834586,0.915195,0.487276
0.698144,0.834563,0.915103,0.487228
0.697725,0.834539,0.915011,0.487179
0.697307,0.834515,0.91492,0.48713
0.696888,0.834492,0.914828,0.487081
0.696819,0.834468,0.914737,0.487033
0.696749,0.834445,0.942085,0.486984
0.696331,0.834421,0.941991,0.486935
0.695913,0.834397,0.941896,0.486887
0.695496,0.834374,0.941802,0.486838
0.695078,0.83435,0.941708,0.486789
0.694661,0.834327,0.941614,0.486741
0.694245,0.834303,0.94152,0.486692
0.693828,0.83428,0.941426,0.486643
0.693412,0.834256,0.941331,0.486595
0.692996,0.834232,0.941237,0.486546
0.69258,0.834209,0.941143,0.486497
0.692165,0.834185,0.941049,0.486449
0.691749,0.834162,0.940955,0.4864
0.691334,0.834138,0.940861,0.486351
0.69092,0.834114,0.940767,0.486303
0.690505,0.834091,0.940673,0.486254
0.690091,0.834067,0.940579,0.486205
0.689677,0.834044,0.940485,0.486157
0.689263,0.83402,0.940391,0.486108
0.68885,0.833997,0.940297,0.48606
0.688436,0.833973,0.940203,0.486011
0.688023,0.833949,0.940108,0.485962
0.68761,0.833926,0.940014,0.485914
0.687198,0.833902,0.93992,0.485865
0.686786,0.833879,0.939826,0.485817
0.686374,0.833855,0.939733,0.485768
0.685962,0.833832,0.939639,0.485719
0.68555,0.833808,0.939545,0.485671
0.685139,0.833784,0.939451,0.485622
0.684728,0.833761,0.939357,0.485574
0.684317,0.833737,0.939263,0.485525
0.683907,0.833714,0.939169,0.485477
0.683496,0.83369,0.939075,0.485428
0.683086,0.833667,0.938981,0.485379
0.682676,0.833643,0.938887,0.485331
0.682267,0.833619,0.938793,0.485282
0.681857,0.833596,0.938699,0.485234
0.681448,0.833572,0.938605,0.485185
0.68138,0.833549,0.938512,0.485137
0.681312,0.833525,0.96657,0.485088
0.680903,0.833502,0.966474,0.48504
0.680495,0.833478,0.966377,0.484991
0.680087,0.833455,0.96628,0.484943
0.679679,0.833431,0.966184,0.484894
0.679271,0.833407,0.966087,0.484846
0.678863,0.833384,0.96599,0.484797
0.678456,0.83336,0.965894,0.484749
0.678049,0.833337,0.965797,0.4847
0.677642,0.833313,0.965701,0.484652
0.677236,0.83329,0.965604,0.484603
0.676829,0.833266,0.965508,0.484555
0.676423,0.833243,0.965411,0.484507
0.676017,0.833219,0.965314,0.484458
0.675612,0.833195,0.965218,0.48441
0.675206,0.833172,0.965121,0.484361
0.674801,0.833148,0.965025,0.484313
0.674397,0.833125,0.964928,0.484264
0.673992,0.833101,0.964832,0.484216
0.673588,0.833078,0.964735,0.484167
0.673183,0.833054,0.964639,0.484119
0.673116,0.833031,0.964542,0.484071
0.673049,0.833007,0.993379,0.484022
0.672645,0.832983,0.99328,0.483974
0.672241,0.83296,0.993181,0.483925
0.671838,0.832936,0.993081,0.483877
0.671435,0.832913,0.992982,0.483829
0.671032,0.832889,0.992883,0.48378
0.67063,0.832866,0.992784,0.483732
0.670227,0.832842,0.992684,0.483684
0.669825,0.832819,0.992585,0.483635
0.669423,0.832795,0.992486,0.483587
0.669022,0.832772,0.992386,0.483538
0.66862,0.832748,0.992287,0.48349
0.668219,0.832724,0.992188,0.483442
0.667818,0.832701,0.992089,0.483393
0.667418,0.832677,0.99199,0.483345
0.667017,0.832654,0.99189,0.483297
0.666617,0.83263,0.991791,0.483248
0.666217,0.832607,0.991692,0.4832
0.665817,0.832583,0.991593,0.483152
0.665418,0.83256,0.991494,0.483103
0.665019,0.832536,0.991395,0.483055
0.66462,0.832513,0.991295,0.483007
0.664221,0.832489,0.991196,0.482959
0.663823,0.832466,0.991097,0.48291
0.663424,0.832442,0.990998,0.482862
0.663026,0.832419,0.990899,0.482814
0.662628,0.832395,0.9908,0.482765
0.662231,0.832371,0.990701,0.482717
0.661834,0.832348,0.990602,0.482669
0.661437,0.832324,0.990503,0.482621
0.66104,0.832301,0.990404,0.482572
0.660643,0.832277,0.990305,0.482524
0.660247,0.832254,0.990206,0.482476
0.659851,0.83223,0.990107,0.482428
0.659455,0.832207,0.990008,0.482379
0.659059,0.832183,0.989909,0.482331
0.658664,0.83216,0.98981,0.482283
0.658269,0.832136,0.989711,0.482235
0.657874,0.832113,0.989612,0.482186
0.657479,0.832089,0.989513,0.482138
0.657085,0.832066,0.989414,0.48209
0.657019,0.832042,0.989315,0.482042
0.656953,0.832019,1,0.481994
0.656559,0.831995,0.9999,0.481945
0.656165,0.831972,0.9998,0.481897
0.655771,0.831948,0.9997,0.481849
0.655378,0.831925,0.9996,0.481801
0.654985,0.831901,0.9995,0.481753
0.654592,0.831878,0.9994,0.481704
0.654199,0.831854,0.9993,0.481656
0.653807,0.83183,0.9992,0.481608
0.653414,0.831807,0.9991,0.48156
0.653022,0.831783,0.999,0.481512
0.652631,0.83176,0.998901,0.481464
0.652239,0.831736,0.998801,0.481415
0.651848,0.831713,0.998701,0.481367
0.651457,0.831689,0.998601,0.481319
0.651066,0.831666,0.998501,0.481271
0.650675,0.831642,0.998401,0.481223
0.650285,0.831619,0.998301,0.481175
0.649895,0.831595,0.998202,0.481127
0.649505,0.831572,0.998102,0.481079
0.649115,0.831548,0.998002,0.48103
0.648726,0.831525,0.997902,0.480982
0.648336,0.831501,0.997802,0.480934
0.647947,0.831478,0.997703,0.480886
0.647559,0.831454,0.997603,0.480838
0.64717,0.831431,0.997503,0.48079
0.646782,0.831407,0.997403,0.480742
0.646394,0.831384,0.997304,0.480694
0.646006,0.83136,0.997204,0.480646
0.645619,0.831337,0.997104,0.480598
0.645231,0.831313,0.997004,0.48055
0.644844,0.83129,0.996905,0.480502
0.644457,0.831266,0.996805,0.480454
0.644071,0.831243,0.996705,0.480405
0.644006,0.831219,0.996606,0.480357
0.643942,0.831196,1,0.480309
0.643555,0.831172,0.9999,0.480261
0.643169,0.831149,0.9998,0.480213
0.642783,0.831125,0.9997,0.480165
0.642398,0.831102,0.9996,0.480117
0.642012,0.831078,0.9995,0.480069
0.641627,0.831055,0.9994,0.480021
0.641242,0.831031,0.9993,0.479973
0.640858,0.831008,0.9992,0.479925
0.640473,0.830984,0.9991,0.479877
0.640089,0.830961,0.999,0.479829
0.639705,0.830937,0.998901,0.479781
0.639321,0.830914,0.998801,0.479733
0.638938,0.83089,0.998701,0.479685
0.638554,0.830867,0.998601,0.479637
0.638171,0.830843,0.998501,0.479589
0.637788,0.83082,0.998401,0.479541
0.637724,0.830796,0.998301,0.479494
0.637661,0.830773,1,0.479446
0.637278,0.83075,0.9999,0.479398
0.636896,0.830726,0.9998,0.47935
0.636514,0.830703,0.9997,0.479302
0.636132,0.830679,0.9996,0.479254
0.63575,0.830656,0.9995,0.479206
0.635369,0.830632,0.9994,0.479158
0.634988,0.830609,0.9993,0.47911
0.634607,0.830585,0.9992,0.479062
0.634226,0.830562,0.9991,0.479014
0.633845,0.830538,0.999,0.478966
0.633465,0.830515,0.998901,0.478918
0.633402,0.830491,0.998801,0.478871
0.633338,0.830468,1,0.478823
0.632958,0.830444,0.9999,0.478775
0.632579,0.830421,0.9998,0.478727
0.632199,0.830397,0.9997,0.478679
0.63182,0.830374,0.9996,0.478631
0.631441,0.83035,0.9995,0.478583
0.631062,0.830327,0.9994,0.478535
0.630683,0.830303,0.9993,0.478488
0.630305,0.83028,0.9992,0.47844
0.629927,0.830257,0.9991,0.478392
0.629549,0.830233,0.999,0.478344
0.629171,0.83021,0.998901,0.478296
0.628794,0.830186,0.998801,0.478248
0.628416,0.830163,0.998701,0.478201
0.628354,0.830139,0.998601,0.478153
0.628291,0.830116,1,0.478105
0.627914,0.830092,0.9999,0.478057
0.627537,0.830069,0.9998,0.478009
0.627161,0.830045,0.9997,0.477962
0.626784,0.830022,0.9996,0.477914
0.626408,0.829998,0.9995,0.477866
0.626033,0.829975,0.9994,0.477818
0.625657,0.829951,0.9993,0.47777
0.625282,0.829928,0.9992,0.477723
0.624906,0.829905,0.9991,0.477675
0.624532,0.829881,0.999,0.477627
0.624157,0.829858,0.998901,0.477579
0.623782,0.829834,0.998801,0.477532
0.623408,0.829811,0.998701,0.477484
0.623034,0.829787,0.998601,0.477436
0.62266,0.829764,0.998501,0.477388
0.622287,0.82974,0.998401,0.477341
0.621913,0.829717,0.998301,0.477293
0.62154,0.829693,0.998202,0.477245
0.621167,0.82967,0.998102,0.477197
0.620795,0.829647,0.998002,0.47715
0.620422,0.829623,0.997902,0.477102
0.62005,0.8296,0.997802,0.477054
0.619678,0.829576,0.997703,0.477007
0.619306,0.829553,0.997603,0.476959
0.618935,0.829529,0.997503,0.476911
0.618563,0.829506,0.997403,0.476863
0.618192,0.829482,0.997304,0.476816
0.617821,0.829459,0.997204,0.476768
0.617451,0.829435,0.997104,0.47672
0.61708,0.829412,0.997004,0.476673
0.61671,0.829389,0.996905,0.476625
0.61634,0.829365,0.996805,0.476577
0.61597,0.829342,0.996705,0.47653
0.615909,0.829318,0.996606,0.476482
0.615847,0.829295,1,0.476434
0.615478,0.829271,0.9999,0.476387
0.615108,0.829248,0.9998,0.476339
0.614739,0.829224,0.9997,0.476292
0.614371,0.829201,0.9996,0.476244
0.614002,0.829178,0.9995,0.476196
0.613634,0.829154,0.9994,0.476149
0.613265,0.829131,0.9993,0.476101
0.612898,0.829107,0.9992,0.476053
0.61253,0.829084,0.9991,0.476006
0.612162,0.82906,0.999,0.475958
0.611795,0.829037,0.998901,0.475911
0.611428,0.829014,0.998801,0.475863
0.611061,0.82899,0.998701,0.475815
0.610695,0.828967,0.998601,0.475768
0.610328,0.828943,0.998501,0.47572
0.609962,0.82892,0.998401,0.475673
0.609596,0.828896,0.998301,0.475625
0.60923,0.828873,0.998202,0.475578
0.608865,0.82885,0.998102,0.47553
0.6085,0.828826,0.998002,0.475482
0.608135,0.828803,0.997902,0.475435
0.60777,0.828779,0.997802,0.475387
0.607405,0.828756,0.997703,0.47534
0.607041,0.828732,0.997603,0.475292
0.606676,0.828709,0.997503,0.475245
0.606616,0.828686,0.997403,0.475197
0.606555,0.828662,1,0.47515
0.606191,0.828639,0.9999,0.475102
0.605828,0.828615,0.9998,0.475055
0.605464,0.828592,0.9997,0.475007
0.605101,0.828568,0.9996,0.47496
0.604738,0.828545,0.9995,0.474912
0.604375,0.828522,0.9994,0.474865
0.604012,0.828498,0.9993,0.474817
0.60365,0.828475,0.9992,0.47477
0.603288,0.828451,0.9991,0.474722
0.602926,0.828428,0.999,0.474675
0.602564,0.828404,0.998901,0.474627
0.602203,0.828381,0.998801,0.47458
0.601841,0.828358,0.998701,0.474532
0.60148,0.828334,0.998601,0.474485
0.601119,0.828311,0.998501,0.474438
0.600759,0.828287,0.998401,0.47439
0.600398,0.828264,0.998301,0.474343
0.600038,0.828241,0.998202,0.474295
0.599678,0.828217,0.998102,0.474248
0.599318,0.828194,0.998002,0.4742
0.598959,0.82817,0.997902,0.474153
0.598599,0.828147,0.997802,0.474105
0.59824,0.828124,0.997703,0.474058
0.598181,0.8281,0.997603,0.474011
0.598121,0.828077,1,0.473963
0.597762,0.828053,0.9999,0.473916
0.597403,0.82803,0.9998,0.473868
0.597045,0.828006,0.9997,0.473821
0.596687,0.827983,0.9996,0.473774
0.596329,0.82796,0.9995,0.473726
0.595971,0.827936,0.9994,0.473679
0.595613,0.827913,0.9993,0.473632
0.595256,0.827889,0.9992,0.473584
0.594899,0.827866,0.9991,0.473537
0.594542,0.827843,0.999,0.47349
0.594185,0.827819,0.998901,0.473442
0.593829,0.827796,0.998801,0.473395
0.593472,0.827772,0.998701,0.473347
0.593116,0.827749,0.998601,0.4733
0.592761,0.827726,0.998501,0.473253
0.592405,0.827702,0.998401,0.473206
0.59205,0.827679,0.998301,0.473158
0.59199,0.827655,0.998202,0.473111
0.591931,0.827632,1,0.473064
0.591576,0.827609,0.9999,0.473016
0.591221,0.827585,0.9998,0.472969
0.590866,0.827562,0.9997,0.472922
0.590512,0.827538,0.9996,0.472874
0.590158,0.827515,0.9995,0.472827
0.589804,0.827492,0.9994,0.47278
0.58945,0.827468,0.9993,0.472733
0.589096,0.827445,0.9992,0.472685
0.589037,0.827422,0.9991,0.472638
0.588978,0.827398,1,0.472591
0.588625,0.827375,0.9999,0.472543
0.588272,0.827351,0.9998,0.472496
0.587919,0.827328,0.9997,0.472449
0.587566,0.827305,0.9996,0.472402
0.587214,0.827281,0.9995,0.472354
0.586861,0.827258,0.9994,0.472307
0.586509,0.827234,0.9993,0.47226
0.586157,0.827211,0.9992,0.472213
0.585806,0.827188,0.9991,0.472166
0.585454,0.827164,0.999,0.472118
0.585103,0.827141,0.998901,0.472071
0.584752,0.827118,0.998801,0.472024
0.584401,0.827094,0.998701,0.471977
0.584051,0.827071,0.998601,0.47193
0.5837,0.827047,0.998501,0.471882
0.58335,0.827024,0.998401,0.471835
0.583,0.827001,0.998301,0.471788
0.58265,0.826977,0.998202,0.471741
0.582301,0.826954,0.998102,0.471694
0.581951,0.82693,0.998002,0.471646
0.581893,0.826907,0.997902,0.471599
0.581835,0.826884,1,0.471552
0.581486,0.82686,0.9999,0.471505
0.581137,0.826837,0.9998,0.471458
0.580788,0.826814,0.9997,0.471411
0.58044,0.82679,0.9996,0.471364
0.580092,0.826767,0.9995,0.471316
0.579744,0.826744,0.9994,0.471269
0.579396,0.82672,0.9993,0.471222
0.579048,0.826697,0.9992,0.471175
0.578701,0.826673,0.9991,0.471128
0.578354,0.82665,0.999,0.471081
0.578007,0.826627,0.998901,0.471034
0.57766,0.826603,0.998801,0.470987
0.577313,0.82658,0.998701,0.470939
0.576967,0.826557,0.998601,0.470892
0.576621,0.826533,0.998501,0.470845
0.576275,0.82651,0.998401,0.470798
0.575929,0.826486,0.998301,0.470751
0.575584,0.826463,0.998202,0.470704
0.575238,0.82644,0.998102,0.470657
0.574893,0.826416,0.998002,0.47061
0.574548,0.826393,0.997902,0.470563
0.574203,0.82637,0.997802,0.470516
0.573859,0.826346,0.997703,0.470469
0.573515,0.826323,0.997603,0.470422
0.573171,0.8263,0.997503,0.470375
0.572827,0.826276,0.997403,0.470328
0.572483,0.826253,0.997304,0.470281
0.57214,0.82623,0.997204,0.470234
0.571796,0.826206,0.997104,0.470187
0.571453,0.826183,0.997004,0.470139
0.57111,0.826159,0.996905,0.470092
0.570768,0.826136,0.996805,0.470045
0.570425,0.826113,0.996705,0.469998
0.570083,0.826089,0.996606,0.469951
0.569741,0.826066,0.996506,0.469904
0.569399,0.826043,0.996406,0.469857
0.569058,0.826019,0.996307,0.46981
0.568716,0.825996,0.996207,0.469764
0.568375,0.825973,0.996107,0.469717
0.568034,0.825949,0.996008,0.46967
0.567693,0.825926,0.995908,0.469623
0.567353,0.825903,0.995809,0.469576
0.567012,0.825879,0.995709,0.469529
0.566672,0.825856,0.995609,0.469482
0.566332,0.825833,0.99551,0.469435
0.565992,0.825809,0.99541,0.469388
0.565653,0.825786,0.995311,0.469341
0.565313,0.825763,0.995211,0.469294
0.565257,0.825739,0.995112,0.469247
0.5652,0.825716,1,0.4692
0.564861,0.825693,0.9999,0.469153
0.564522,0.825669,0.9998,0.469106
0.564184,0.825646,0.9997,0.469059
0.563845,0.825622,0.9996,0.469012
0.563507,0.825599,0.9995,0.468966
0.563169,0.825576,0.9994,0.468919
0.562831,0.825552,0.9993,0.468872
0.562493,0.825529,0.9992,0.468825
0.562156,0.825506,0.9991,0.468778
0.561819,0.825482,0.999,0.468731
0.561482,0.825459,0.998901,0.468684
0.561145,0.825436,0.998801,0.468637
0.560808,0.825412,0.998701,0.468591
0.560472,0.825389,0.998601,0.468544
0.560135,0.825366,0.998501,0.468497
0.559799,0.825342,0.998401,0.46845
0.559463,0.825319,0.998301,0.468403
0.559128,0.825296,0.998202,0.468356
0.558792,0.825272,0.998102,0.468309
0.558457,0.825249,0.998002,0.468263
0.558122,0.825226,0.997902,0.468216
0.557787,0.825203,0.997802,0.468169
0.557453,0.825179,0.997703,0.468122
0.557118,0.825156,0.997603,0.468075
0.556784,0.825133,0.997503,0.468029
0.55645,0.825109,0.997403,0.467982
0.556116,0.825086,0.997304,0.467935
0.555782,0.825063,0.997204,0.467888
0.555449,0.825039,0.997104,0.467841
0.555116,0.825016,0.997004,0.467795
0.554783,0.824993,0.996905,0.467748
0.55445,0.824969,0.996805,0.467701
0.554117,0.824946,0.996705,0.467654
0.553785,0.824923,0.996606,0.467607
0.553729,0.824899,0.996506,0.467561
0.553674,0.824876,1,0.467514
0.553342,0.824853,0.9999,0.467467
0.55301,0.824829,0.9998,0.46742
0.552678,0.824806,0.9997,0.467374
0.552346,0.824783,0.9996,0.467327
0.552015,0.824759,0.9995,0.46728
0.551684,0.824736,0.9994,0.467233
0.551353,0.824713,0.9993,0.467187
0.551022,0.824689,0.9992,0.46714
0.550692,0.824666,0.9991,0.467093
0.550361,0.824643,0.999,0.467047
0.550031,0.82462,0.998901,0.467
0.549701,0.824596,0.998801,0.466953
0.549371,0.824573,0.998701,0.466907
0.549042,0.82455,0.998601,0.46686
0.548712,0.824526,0.998501,0.466813
0.548383,0.824503,0.998401,0.466766
0.548054,0.82448,0.998301,0.46672
0.547725,0.824456,0.998202,0.466673
0.547397,0.824433,0.998102,0.466626
0.547068,0.82441,0.998002,0.46658
0.54674,0.824386,0.997902,0.466533
0.546412,0.824363,0.997802,0.466486
0.546084,0.82434,0.997703,0.46644
0.545756,0.824317,0.997603,0.466393
0.545429,0.824293,0.997503,0.466347
0.545102,0.82427,0.997403,0.4663
0.544775,0.824247,0.997304,0.466253
0.544448,0.824223,0.997204,0.466207
0.544121,0.8242,0.997104,0.46616
0.543795,0.824177,0.997004,0.466113
0.543469,0.824153,0.996905,0.466067
0.543143,0.82413,0.996805,0.46602
0.542817,0.824107,0.996705,0.465974
0.542491,0.824084,0.996606,0.465927
0.542166,0.82406,0.996506,0.46588
0.54184,0.824037,0.996406,0.465834
0.541515,0.824014,0.996307,0.465787
0.54119,0.82399,0.996207,0.465741
0.540866,0.823967,0.996107,0.465694
0.540541,0.823944,0.996008,0.465648
0.540217,0.823921,0.995908,0.465601
0.539893,0.823897,0.995809,0.465554
0.539569,0.823874,0.995709,0.465508
0.539245,0.823851,0.995609,0.465461
0.539191,0.823827,0.99551,0.465415
0.539137,0.823804,1,0.465368
0.538814,0.823781,0.9999,0.465322
0.538491,0.823758,0.9998,0.465275
0.538168,0.823734,0.9997,0.465229
0.537845,0.823711,0.9996,0.465182
0.537522,0.823688,0.9995,0.465136
0.537199,0.823664,0.9994,0.465089
0.536877,0.823641,0.9993,0.465043
0.536555,0.823618,0.9992,0.464996
0.536233,0.823595,0.9991,0.46495
0.535911,0.823571,0.999,0.464903
0.535858,0.823548,0.998901,0.464857
0.535804,0.823525,1,0.46481
0.535483,0.823501,0.9999,0.464764
0.535162,0.823478,0.9998,0.464717
0.53484,0.823455,0.9997,0.464671
0.53452,0.823432,0.9996,0.464624
0.534199,0.823408,0.9995,0.464578
0.533878,0.823385,0.9994,0.464531
0.533558,0.823362,0.9993,0.464485
0.533238,0.823338,0.9992,0.464438
0.532918,0.823315,0.9991,0.464392
0.532598,0.823292,0.999,0.464345
0.532279,0.823269,0.998901,0.464299
0.53196,0.823245,0.998801,0.464253
0.53164,0.823222,0.998701,0.464206
0.531321,0.823199,0.998601,0.46416
0.531003,0.823176,0.998501,0.464113
0.530684,0.823152,0.998401,0.464067
0.530366,0.823129,0.998301,0.464021
0.530047,0.823106,0.998202,0.463974
0.529729,0.823082,0.998102,0.463928
0.529412,0.823059,0.998002,0.463881
0.529094,0.823036,0.997902,0.463835
0.528777,0.823013,0.997802,0.463789
0.528459,0.822989,0.997703,0.463742
0.528142,0.822966,0.997603,0.463696
0.527825,0.822943,0.997503,0.463649
0.527509,0.82292,0.997403,0.463603
0.527192,0.822896,0.997304,0.463557
0.526876,0.822873,0.997204,0.46351
0.52656,0.82285,0.997104,0.463464
0.526244,0.822827,0.997004,0.463418
0.525928,0.822803,0.996905,0.463371
0.525613,0.82278,0.996805,0.463325
0.525297,0.822757,0.996705,0.463279
0.524982,0.822734,0.996606,0.463232
0.524667,0.82271,0.996506,0.463186
0.524353,0.822687,0.996406,0.46314
0.524038,0.822664,0.996307,0.463093
0.523724,0.822641,0.996207,0.463047
0.523409,0.822617,0.996107,0.463001
0.523095,0.822594,0.996008,0.462954
0.522782,0.822571,0.995908,0.462908
0.522468,0.822548,0.995809,0.462862
0.522154,0.822524,0.995709,0.462816
0.521841,0.822501,0.995609,0.462769
0.521528,0.822478,0.99551,0.462723
0.521215,0.822455,0.99541,0.462677
0.520902,0.822431,0.995311,0.46263
0.52059,0.822408,0.995211,0.462584
0.520538,0.822385,0.995112,0.462538
0.520486,0.822362,1,0.462492
0.520174,0.822338,0.9999,0.462445
