energy,productivity,fun,hunger
0.84138,0.807274,0.966157,0.72888
0.841296,0.807254,0.995042,0.728807
0.840791,0.807235,0.994942,0.728734
0.840287,0.807215,0.994843,0.728661
0.839783,0.807196,0.994743,0.728588
0.839279,0.807176,0.994644,0.728515
0.838775,0.807157,0.994544,0.728443
0.838272,0.807137,0.994445,0.72837
0.837769,0.807118,0.994345,0.728297
0.837266,0.807098,0.994246,0.728224
0.836764,0.807079,0.994147,0.728151
0.836262,0.807059,0.994047,0.728078
0.83576,0.80704,0.993948,0.728006
0.835259,0.80702,0.993848,0.727933
0.834758,0.807001,0.993749,0.72786
0.834257,0.806981,0.99365,0.727787
0.833757,0.806962,0.99355,0.727714
0.833256,0.806942,0.993451,0.727642
0.832756,0.806923,0.993352,0.727569
0.832257,0.806903,0.993252,0.727496
0.831758,0.806884,0.993153,0.727423
0.831259,0.806864,0.993054,0.727351
0.83076,0.806845,0.992954,0.727278
0.830261,0.806825,0.992855,0.727205
0.829763,0.806806,0.992756,0.727132
0.829265,0.806786,0.992656,0.72706
0.828768,0.806767,0.992557,0.726987
0.828271,0.806747,0.992458,0.726914
0.827774,0.806728,0.992359,0.726842
0.827277,0.806708,0.992259,0.726769
0.826781,0.806689,0.99216,0.726696
0.826285,0.806669,0.992061,0.726624
0.825789,0.80665,0.991962,0.726551
0.825294,0.80663,0.991863,0.726478
0.824799,0.806611,0.991763,0.726406
0.824304,0.806591,0.991664,0.726333
0.823809,0.806572,0.991565,0.72626
0.823315,0.806552,0.991466,0.726188
0.822821,0.806533,0.991367,0.726115
0.822739,0.806513,0.991268,0.726043
0.822656,0.806494,1,0.72597
0.822163,0.806474,0.9999,0.725897
0.82167,0.806455,0.9998,0.725825
0.821177,0.806435,0.9997,0.725752
0.820684,0.806416,0.9996,0.72568
0.820192,0.806396,0.9995,0.725607
0.8197,0.806377,0.9994,0.725534
0.819208,0.806357,0.9993,0.725462
0.818716,0.806338,0.9992,0.725389
0.818634,0.806319,0.9991,0.725317
0.818553,0.806299,1,0.725244
0.818061,0.80628,0.9999,0.725172
0.817571,0.80626,0.9998,0.725099
0.81708,0.806241,0.9997,0.725027
0.81659,0.806221,0.9996,0.724954
0.8161,0.806202,0.9995,0.724882
0.81561,0.806182,0.9994,0.724809
0.815121,0.806163,0.9993,0.724737
0.814632,0.806143,0.9992,0.724664
0.814143,0.806124,0.9991,0.724592
0.813655,0.806104,0.999,0.724519
0.813167,0.806085,0.998901,0.724447
0.812679,0.806065,0.998801,0.724374
0.812598,0.806046,0.998701,0.724302
0.812516,0.806026,1,0.72423
0.812029,0.806007,0.9999,0.724157
0.811542,0.805987,0.9998,0.724085
0.811055,0.805968,0.9997,0.724012
0.810568,0.805948,0.9996,0.72394
0.810082,0.805929,0.9995,0.723868
0.809596,0.80591,0.9994,0.723795
0.80911,0.80589,0.9993,0.723723
0.808625,0.805871,0.9992,0.72365
0.80814,0.805851,0.9991,0.723578
0.808059,0.805832,0.999,0.723506
0.807978,0.805812,1,0.723433
0.807493,0.805793,0.9999,0.723361
0.807009,0.805773,0.9998,0.723289
0.806525,0.805754,0.9997,0.723216
0.806041,0.805734,0.9996,0.723144
0.805557,0.805715,0.9995,0.723072
0.805074,0.805695,0.9994,0.722999
0.804591,0.805676,0.9993,0.722927
0.804108,0.805656,0.9992,0.722855
0.803626,0.805637,0.9991,0.722782
0.803144,0.805618,0.999,0.72271
0.802662,0.805598,0.998901,0.722638
0.80218,0.805579,0.998801,0.722566
0.801699,0.805559,0.998701,0.722493
0.801218,0.80554,0.998601,0.722421
0.800737,0.80552,0.998501,0.722349
0.800257,0.805501,0.998401,0.722277
0.799777,0.805481,0.998301,0.722204
0.799297,0.805462,0.998202,0.722132
0.798817,0.805442,0.998102,0.72206
0.798338,0.805423,0.998002,0.721988
0.797859,0.805403,0.997902,0.721916
0.79738,0.805384,0.997802,0.721843
0.796902,0.805365,0.997703,0.721771
0.796424,0.805345,0.997603,0.721699
0.795946,0.805326,0.997503,0.721627
0.795867,0.805306,0.997403,0.721555
0.795787,0.805287,1,0.721483
0.79531,0.805267,0.9999,0.72141
0.794832,0.805248,0.9998,0.721338
0.794356,0.805228,0.9997,0.721266
0.793879,0.805209,0.9996,0.721194
0.793403,0.805189,0.9995,0.721122
0.792927,0.80517,0.9994,0.72105
0.792451,0.805151,0.9993,0.720978
0.791976,0.805131,0.9992,0.720906
0.7915,0.805112,0.9991,0.720834
0.791026,0.805092,0.999,0.720761
0.790551,0.805073,0.998901,0.720689
0.790077,0.805053,0.998801,0.720617
0.789603,0.805034,0.998701,0.720545
0.789129,0.805014,0.998601,0.720473
0.788656,0.804995,0.998501,0.720401
0.788182,0.804976,0.998401,0.720329
0.787709,0.804956,0.998301,0.720257
0.787237,0.804937,0.998202,0.720185
0.786765,0.804917,0.998102,0.720113
0.786293,0.804898,0.998002,0.720041
0.785821,0.804878,0.997902,0.719969
0.785349,0.804859,0.997802,0.719897
0.784878,0.804839,0.997703,0.719825
0.784407,0.80482,0.997603,0.719753
0.783937,0.804801,0.997503,0.719681
0.783466,0.804781,0.997403,0.719609
0.782996,0.804762,0.997304,0.719537
0.782527,0.804742,0.997204,0.719465
0.782057,0.804723,0.997104,0.719393
0.781588,0.804703,0.997004,0.719321
0.781119,0.804684,0.996905,0.719249
0.78065,0.804664,0.996805,0.719177
0.780572,0.804645,0.996705,0.719106
0.780494,0.804626,1,0.719034
0.780026,0.804606,0.9999,0.718962
0.779558,0.804587,0.9998,0.71889
0.77909,0.804567,0.9997,0.718818
0.778623,0.804548,0.9996,0.718746
0.778156,0.804528,0.9995,0.718674
0.777689,0.804509,0.9994,0.718602
0.777222,0.804489,0.9993,0.71853
0.776756,0.80447,0.9992,0.718459
0.77629,0.804451,0.9991,0.718387
0.775824,0.804431,0.999,0.718315
0.775359,0.804412,0.998901,0.718243
0.774894,0.804392,0.998801,0.718171
0.774429,0.804373,0.998701,0.718099
0.773964,0.804353,0.998601,0.718028
0.7735,0.804334,0.998501,0.717956
0.773036,0.804315,0.998401,0.717884
0.772572,0.804295,0.998301,0.717812
0.772108,0.804276,0.998202,0.71774
0.771645,0.804256,0.998102,0.717669
0.771182,0.804237,0.998002,0.717597
0.77072,0.804217,0.997902,0.717525
0.770257,0.804198,0.997802,0.717453
0.769795,0.804179,0.997703,0.717382
0.769333,0.804159,0.997603,0.71731
0.768872,0.80414,0.997503,0.717238
0.76841,0.80412,0.997403,0.717166
0.767949,0.804101,0.997304,0.717095
0.767489,0.804081,0.997204,0.717023
0.767028,0.804062,0.997104,0.716951
0.766568,0.804043,0.997004,0.71688
0.766108,0.804023,0.996905,0.716808
0.765649,0.804004,0.996805,0.716736
0.765572,0.803984,0.996705,0.716665
0.765495,0.803965,1,0.716593
0.765036,0.803945,0.9999,0.716521
0.764577,0.803926,0.9998,0.71645
0.764118,0.803907,0.9997,0.716378
0.76366,0.803887,0.9996,0.716306
0.763202,0.803868,0.9995,0.716235
0.762744,0.803848,0.9994,0.716163
0.762286,0.803829,0.9993,0.716091
0.761829,0.80381,0.9992,0.71602
0.761372,0.80379,0.9991,0.715948
0.760915,0.803771,0.999,0.715877
0.760459,0.803751,0.998901,0.715805
0.760002,0.803732,0.998801,0.715733
0.759546,0.803712,0.998701,0.715662
0.759091,0.803693,0.998601,0.71559
0.758635,0.803674,0.998501,0.715519
0.75818,0.803654,0.998401,0.715447
0.757725,0.803635,0.998301,0.715376
0.75765,0.803615,0.998202,0.715304
0.757574,0.803596,1,0.715233
0.757119,0.803577,0.9999,0.715161
0.756665,0.803557,0.9998,0.71509
0.756211,0.803538,0.9997,0.715018
0.755757,0.803518,0.9996,0.714947
0.755304,0.803499,0.9995,0.714875
0.754851,0.803479,0.9994,0.714804
0.754398,0.80346,0.9993,0.714732
0.753945,0.803441,0.9992,0.714661
0.753493,0.803421,0.9991,0.714589
0.753041,0.803402,0.999,0.714518
0.752589,0.803382,0.998901,0.714446
0.752138,0.803363,0.998801,0.714375
0.751686,0.803344,0.998701,0.714303
0.751235,0.803324,0.998601,0.714232
0.75116,0.803305,0.998501,0.714161
0.751085,0.803285,1,0.714089
0.750635,0.803266,0.9999,0.714018
0.750184,0.803247,0.9998,0.713946
0.749734,0.803227,0.9997,0.713875
0.749284,0.803208,0.9996,0.713803
0.748835,0.803188,0.9995,0.713732
0.748386,0.803169,0.9994,0.713661
0.747937,0.80315,0.9993,0.713589
0.747488,0.80313,0.9992,0.713518
0.747039,0.803111,0.9991,0.713447
0.746591,0.803091,0.999,0.713375
0.746517,0.803072,0.998901,0.713304
0.746442,0.803053,1,0.713233
0.745994,0.803033,0.9999,0.713161
0.745547,0.803014,0.9998,0.71309
0.745099,0.802994,0.9997,0.713019
0.744652,0.802975,0.9996,0.712947
0.744206,0.802956,0.9995,0.712876
0.743759,0.802936,0.9994,0.712805
0.743313,0.802917,0.9993,0.712734
0.742867,0.802897,0.9992,0.712662
0.742421,0.802878,0.9991,0.712591
0.741976,0.802859,0.999,0.71252
0.741531,0.802839,0.998901,0.712448
0.741086,0.80282,0.998801,0.712377
0.741012,0.8028,0.998701,0.712306
0.740938,0.802781,1,0.712235
0.740493,0.802762,0.9999,0.712164
0.740049,0.802742,0.9998,0.712092
0.739605,0.802723,0.9997,0.712021
0.739161,0.802703,0.9996,0.71195
0.738718,0.802684,0.9995,0.711879
0.738274,0.802665,0.9994,0.711808
0.737831,0.802645,0.9993,0.711736
0.737389,0.802626,0.9992,0.711665
0.736946,0.802606,0.9991,0.711594
0.736504,0.802587,0.999,0.711523
0.736062,0.802568,0.998901,0.711452
0.735621,0.802548,0.998801,0.711381
0.735179,0.802529,0.998701,0.711309
0.734738,0.802509,0.998601,0.711238
0.734298,0.80249,0.998501,0.711167
0.733857,0.802471,0.998401,0.711096
0.733417,0.802451,0.998301,0.711025
0.732977,0.802432,0.998202,0.710954
0.732537,0.802413,0.998102,0.710883
0.732097,0.802393,0.998002,0.710812
0.731658,0.802374,0.997902,0.710741
0.731219,0.802354,0.997802,0.71067
0.730781,0.802335,0.997703,0.710598
0.730342,0.802316,0.997603,0.710527
0.729904,0.802296,0.997503,0.710456
0.729466,0.802277,0.997403,0.710385
0.729028,0.802257,0.997304,0.710314
0.728591,0.802238,0.997204,0.710243
0.728154,0.802219,0.997104,0.710172
0.727717,0.802199,0.997004,0.710101
0.727281,0.80218,0.996905,0.71003
0.726844,0.802161,0.996805,0.709959
0.726408,0.802141,0.996705,0.709888
0.725972,0.802122,0.996606,0.709817
0.725537,0.802102,0.996506,0.709746
0.725101,0.802083,0.996406,0.709675
0.724666,0.802064,0.996307,0.709604
0.724232,0.802044,0.996207,0.709533
0.723797,0.802025,0.996107,0.709462
0.723363,0.802006,0.996008,0.709391
0.722929,0.801986,0.995908,0.70932
0.722495,0.801967,0.995809,0.70925
0.722062,0.801947,0.995709,0.709179
0.721629,0.801928,0.995609,0.709108
0.721196,0.801909,0.99551,0.709037
0.720763,0.801889,0.99541,0.708966
0.720691,0.80187,0.995311,0.708895
0.720619,0.801851,1,0.708824
0.720186,0.801831,0.9999,0.708753
0.719754,0.801812,0.9998,0.708682
0.719323,0.801792,0.9997,0.708611
0.718891,0.801773,0.9996,0.708541
0.71846,0.801754,0.9995,0.70847
0.718029,0.801734,0.9994,0.708399
0.717598,0.801715,0.9993,0.708328
0.717167,0.801696,0.9992,0.708257
0.716737,0.801676,0.9991,0.708186
0.716307,0.801657,0.999,0.708116
0.715877,0.801637,0.998901,0.708045
0.715448,0.801618,0.998801,0.707974
0.715019,0.801599,0.998701,0.707903
0.71459,0.801579,0.998601,0.707832
0.714161,0.80156,0.998501,0.707762
0.713732,0.801541,0.998401,0.707691
0.713304,0.801521,0.998301,0.70762
0.712876,0.801502,0.998202,0.707549
0.712449,0.801483,0.998102,0.707479
0.712021,0.801463,0.998002,0.707408
0.711594,0.801444,0.997902,0.707337
0.711167,0.801424,0.997802,0.707266
0.71074,0.801405,0.997703,0.707196
0.710314,0.801386,0.997603,0.707125
0.709888,0.801366,0.997503,0.707054
0.709462,0.801347,0.997403,0.706983
0.709036,0.801328,0.997304,0.706913
0.708611,0.801308,0.997204,0.706842
0.708186,0.801289,0.997104,0.706771
0.707761,0.80127,0.997004,0.706701
0.707336,0.80125,0.996905,0.70663
0.706912,0.801231,0.996805,0.706559
0.706488,0.801211,0.996705,0.706489
0.706064,0.801192,0.996606,0.706418
0.70564,0.801173,0.996506,0.706347
0.705217,0.801153,0.996406,0.706277
0.704794,0.801134,0.996307,0.706206
0.704371,0.801115,0.996207,0.706136
0.703949,0.801095,0.996107,0.706065
0.703526,0.801076,0.996008,0.705994
0.703104,0.801057,0.995908,0.705924
0.702682,0.801037,0.995809,0.705853
0.702261,0.801018,0.995709,0.705783
0.701839,0.800999,0.995609,0.705712
0.701418,0.800979,0.99551,0.705641
0.700997,0.80096,0.99541,0.705571
0.700577,0.800941,0.995311,0.7055
0.700157,0.800921,0.995211,0.70543
0.700087,0.800902,0.995112,0.705359
0.700017,0.800882,1,0.705289
0.699597,0.800863,0.9999,0.705218
0.699177,0.800844,0.9998,0.705148
0.698757,0.800824,0.9997,0.705077
0.698338,0.800805,0.9996,0.705007
0.697919,0.800786,0.9995,0.704936
0.697501,0.800766,0.9994,0.704866
0.697082,0.800747,0.9993,0.704795
0.696664,0.800728,0.9992,0.704725
0.696246,0.800708,0.9991,0.704654
0.695828,0.800689,0.999,0.704584
0.695411,0.80067,0.998901,0.704513
0.694993,0.80065,0.998801,0.704443
0.694577,0.800631,0.998701,0.704372
0.69416,0.800612,0.998601,0.704302
0.693743,0.800592,0.998501,0.704231
0.693327,0.800573,0.998401,0.704161
0.692911,0.800554,0.998301,0.704091
0.692495,0.800534,0.998202,0.70402
0.69208,0.800515,0.998102,0.70395
0.691665,0.800496,0.998002,0.703879
0.69125,0.800476,0.997902,0.703809
0.690835,0.800457,0.997802,0.703739
0.690421,0.800438,0.997703,0.703668
0.690006,0.800418,0.997603,0.703598
0.689592,0.800399,0.997503,0.703528
0.689179,0.80038,0.997403,0.703457
0.688765,0.80036,0.997304,0.703387
0.688352,0.800341,0.997204,0.703316
0.687939,0.800322,0.997104,0.703246
0.687526,0.800302,0.997004,0.703176
0.687114,0.800283,0.996905,0.703106
0.686702,0.800264,0.996805,0.703035
0.68629,0.800244,0.996705,0.702965
0.685878,0.800225,0.996606,0.702895
0.685466,0.800206,0.996506,0.702824
0.685055,0.800186,0.996406,0.702754
0.684644,0.800167,0.996307,0.702684
0.684233,0.800148,0.996207,0.702613
0.683823,0.800128,0.996107,0.702543
0.683413,0.800109,0.996008,0.702473
0.683003,0.80009,0.995908,0.702403
0.682593,0.80007,0.995809,0.702332
0.682183,0.800051,0.995709,0.702262
0.681774,0.800032,0.995609,0.702192
0.681365,0.800012,0.99551,0.702122
0.680956,0.799993,0.99541,0.702052
0.680548,0.799974,0.995311,0.701981
0.68048,0.799954,0.995211,0.701911
0.680412,0.799935,1,0.701841
0.680003,0.799916,0.9999,0.701771
0.679595,0.799896,0.9998,0.701701
0.679188,0.799877,0.9997,0.70163
0.67878,0.799858,0.9996,0.70156
0.678373,0.799838,0.9995,0.70149
0.677966,0.799819,0.9994,0.70142
0.677559,0.7998,0.9993,0.70135
0.677153,0.79978,0.9992,0.70128
0.676746,0.799761,0.9991,0.70121
0.67634,0.799742,0.999,0.701139
0.675935,0.799722,0.998901,0.701069
0.675529,0.799703,0.998801,0.700999
0.675124,0.799684,0.998701,0.700929
0.674719,0.799664,0.998601,0.700859
0.674314,0.799645,0.998501,0.700789
0.674247,0.799626,0.998401,0.700719
0.674179,0.799606,1,0.700649
0.673775,0.799587,0.9999,0.700579
0.673371,0.799568,0.9998,0.700509
0.672967,0.799549,0.9997,0.700439
0.672563,0.799529,0.9996,0.700369
0.672159,0.79951,0.9995,0.700299
0.671756,0.799491,0.9994,0.700229
0.671353,0.799471,0.9993,0.700159
0.67095,0.799452,0.9992,0.700088
0.670548,0.799433,0.9991,0.700018
0.670145,0.799413,0.999,0.699948
0.669743,0.799394,0.998901,0.699878
0.669342,0.799375,0.998801,0.699808
0.66894,0.799355,0.998701,0.699739
0.668539,0.799336,0.998601,0.699669
0.668138,0.799317,0.998501,0.699599
0.667737,0.799297,0.998401,0.699529
0.667336,0.799278,0.998301,0.699459
0.666936,0.799259,0.998202,0.699389
0.666536,0.79924,0.998102,0.699319
0.666136,0.79922,0.998002,0.699249
0.665736,0.799201,0.997902,0.699179
0.665337,0.799182,0.997802,0.699109
0.664937,0.799162,0.997703,0.699039
0.664539,0.799143,0.997603,0.698969
0.66414,0.799124,0.997503,0.698899
0.663741,0.799104,0.997403,0.698829
0.663343,0.799085,0.997304,0.69876
0.662945,0.799066,0.997204,0.69869
0.662547,0.799046,0.997104,0.69862
0.66215,0.799027,0.997004,0.69855
0.661753,0.799008,0.996905,0.69848
0.661356,0.798989,0.996805,0.69841
0.660959,0.798969,0.996705,0.69834
0.660562,0.79895,0.996606,0.698271
0.660166,0.798931,0.996506,0.698201
0.65977,0.798911,0.996406,0.698131
0.659374,0.798892,0.996307,0.698061
0.658979,0.798873,0.996207,0.697991
0.658583,0.798853,0.996107,0.697921
0.658188,0.798834,0.996008,0.697852
0.657793,0.798815,0.995908,0.697782
0.657399,0.798796,0.995809,0.697712
0.657004,0.798776,0.995709,0.697642
0.65661,0.798757,0.995609,0.697573
0.656216,0.798738,0.99551,0.697503
0.655822,0.798718,0.99541,0.697433
0.655429,0.798699,0.995311,0.697363
0.655036,0.79868,0.995211,0.697294
0.654643,0.79866,0.995112,0.697224
0.65425,0.798641,0.995012,0.697154
0.653857,0.798622,0.994913,0.697084
0.653465,0.798603,0.994813,0.697015
0.653073,0.798583,0.994714,0.696945
0.652681,0.798564,0.994614,0.696875
0.65229,0.798545,0.994515,0.696806
0.651898,0.798525,0.994415,0.696736
0.651507,0.798506,0.994316,0.696666
0.651442,0.798487,0.994216,0.696597
0.651377,0.798468,1,0.696527
0.650986,0.798448,0.9999,0.696457
0.650596,0.798429,0.9998,0.696388
0.650205,0.79841,0.9997,0.696318
0.649815,0.79839,0.9996,0.696248
0.649425,0.798371,0.9995,0.696179
0.649036,0.798352,0.9994,0.696109
0.648646,0.798333,0.9993,0.69604
0.648257,0.798313,0.9992,0.69597
0.647868,0.798294,0.9991,0.6959
0.64748,0.798275,0.999,0.695831
0.647091,0.798255,0.998901,0.695761
0.646703,0.798236,0.998801,0.695692
0.646315,0.798217,0.998701,0.695622
0.645927,0.798198,0.998601,0.695552
0.64554,0.798178,0.998501,0.695483
0.645152,0.798159,0.998401,0.695413
0.644765,0.79814,0.998301,0.695344
0.644378,0.79812,0.998202,0.695274
0.643992,0.798101,0.998102,0.695205
0.643605,0.798082,0.998002,0.695135
0.643219,0.798063,0.997902,0.695066
0.642833,0.798043,0.997802,0.694996
0.642448,0.798024,0.997703,0.694927
0.642062,0.798005,0.997603,0.694857
0.641677,0.797985,0.997503,0.694788
0.641292,0.797966,0.997403,0.694718
0.641228,0.797947,0.997304,0.694649
0.641164,0.797928,1,0.694579
0.640779,0.797908,0.9999,0.69451
0.640395,0.797889,0.9998,0.69444
0.640011,0.79787,0.9997,0.694371
0.639627,0.79785,0.9996,0.694302
0.639243,0.797831,0.9995,0.694232
0.638859,0.797812,0.9994,0.694163
0.638476,0.797793,0.9993,0.694093
0.638093,0.797773,0.9992,0.694024
0.63771,0.797754,0.9991,0.693954
0.637328,0.797735,0.999,0.693885
0.636945,0.797716,0.998901,0.693816
0.636563,0.797696,0.998801,0.693746
0.636181,0.797677,0.998701,0.693677
0.6358,0.797658,0.998601,0.693608
0.635418,0.797638,0.998501,0.693538
0.635037,0.797619,0.998401,0.693469
0.634656,0.7976,0.998301,0.693399
0.634275,0.797581,0.998202,0.69333
0.633895,0.797561,0.998102,0.693261
0.633514,0.797542,0.998002,0.693191
0.633134,0.797523,0.997902,0.693122
0.632754,0.797504,0.997802,0.693053
0.632375,0.797484,0.997703,0.692984
0.631995,0.797465,0.997603,0.692914
0.631616,0.797446,0.997503,0.692845
0.631553,0.797427,0.997403,0.692776
0.63149,0.797407,1,0.692706
0.631111,0.797388,0.9999,0.692637
0.630732,0.797369,0.9998,0.692568
0.630354,0.797349,0.9997,0.692499
0.629976,0.79733,0.9996,0.692429
0.629598,0.797311,0.9995,0.69236
0.62922,0.797292,0.9994,0.692291
0.628843,0.797272,0.9993,0.692222
0.628465,0.797253,0.9992,0.692152
0.628088,0.797234,0.9991,0.692083
0.628025,0.797215,0.999,0.692014
0.627963,0.797195,1,0.691945
0.627586,0.797176,0.9999,0.691876
0.627209,0.797157,0.9998,0.691806
0.626833,0.797138,0.9997,0.691737
0.626457,0.797118,0.9996,0.691668
0.626081,0.797099,0.9995,0.691599
0.625706,0.79708,0.9994,0.69153
0.62533,0.797061,0.9993,0.691461
0.624955,0.797041,0.9992,0.691391
0.62458,0.797022,0.9991,0.691322
0.624205,0.797003,0.999,0.691253
0.624143,0.796984,0.998901,0.691184
0.624081,0.796964,1,0.691115
0.623706,0.796945,0.9999,0.691046
0.623332,0.796926,0.9998,0.690977
0.622958,0.796907,0.9997,0.690908
0.622584,0.796887,0.9996,0.690839
0.622211,0.796868,0.9995,0.690769
0.621837,0.796849,0.9994,0.6907
0.621464,0.79683,0.9993,0.690631
0.621091,0.79681,0.9992,0.690562
0.620719,0.796791,0.9991,0.690493
0.620346,0.796772,0.999,0.690424
0.619974,0.796753,0.998901,0.690355
0.619602,0.796733,0.998801,0.690286
0.619231,0.796714,0.998701,0.690217
0.618859,0.796695,0.998601,0.690148
0.618488,0.796676,0.998501,0.690079
0.618117,0.796656,0.998401,0.69001
0.617746,0.796637,0.998301,0.689941
0.617375,0.796618,0.998202,0.689872
0.617005,0.796599,0.998102,0.689803
0.616635,0.796579,0.998002,0.689734
0.616265,0.79656,0.997902,0.689665
0.615895,0.796541,0.997802,0.689596
0.615526,0.796522,0.997703,0.689527
0.615156,0.796502,0.997603,0.689458
0.614787,0.796483,0.997503,0.689389
0.614418,0.796464,0.997403,0.68932
0.61405,0.796445,0.997304,0.689251
0.613681,0.796425,0.997204,0.689182
0.613313,0.796406,0.997104,0.689113
0.612945,0.796387,0.997004,0.689045
0.612577,0.796368,0.996905,0.688976
0.61221,0.796348,0.996805,0.688907
0.611843,0.796329,0.996705,0.688838
0.611476,0.79631,0.996606,0.688769
0.611109,0.796291,0.996506,0.6887
0.610742,0.796271,0.996406,0.688631
0.610376,0.796252,0.996307,0.688562
0.610009,0.796233,0.996207,0.688494
0.609643,0.796214,0.996107,0.688425
0.609278,0.796195,0.996008,0.688356
0.608912,0.796175,0.995908,0.688287
0.608851,0.796156,0.995809,0.688218
