energy,productivity,fun,hunger
0.712127,0.794508,0.607088,0.53184
0.712056,0.794418,0.625238,0.531787
0.711629,0.794329,0.643931,0.531734
0.711202,0.79424,0.663182,0.531681
0.710775,0.79415,0.683009,0.531627
0.710349,0.794061,0.703429,0.531574
0.709922,0.793971,0.72446,0.531521
0.709496,0.793882,0.724387,0.531468
0.709071,0.793792,0.724315,0.531415
0.708645,0.793703,0.724243,0.531362
0.70822,0.793613,0.72417,0.531309
0.707795,0.793524,0.724098,0.531255
0.707371,0.793435,0.724025,0.531202
0.706946,0.793345,0.723953,0.531149
0.706522,0.793256,0.72388,0.531096
0.706098,0.793167,0.723808,0.531043
0.705675,0.793077,0.723736,0.53099
0.705251,0.792988,0.723663,0.530937
0.704828,0.792899,0.723591,0.530884
0.704405,0.792809,0.723519,0.530831
0.703983,0.79272,0.723446,0.530777
0.70356,0.792631,0.723374,0.530724
0.703138,0.792541,0.723302,0.530671
0.702716,0.792452,0.723229,0.530618
0.702295,0.792363,0.723157,0.530565
0.701873,0.792273,0.723085,0.530512
0.701452,0.792184,0.723012,0.530459
0.701032,0.792095,0.72294,0.530406
0.700611,0.792006,0.722868,0.530353
0.700191,0.791917,0.722795,0.5303
0.699771,0.791827,0.722723,0.530247
0.699351,0.791738,0.722651,0.530194
0.698931,0.791649,0.722579,0.530141
0.698512,0.79156,0.722506,0.530088
0.698093,0.791471,0.722434,0.530035
0.698023,0.791381,0.722362,0.529982
0.697953,0.791292,0.72229,0.529929
0.697883,0.791203,0.722217,0.529876
0.697814,0.791114,0.722145,0.529823
0.697744,0.791025,0.722073,0.52977
0.697674,0.790936,0.722001,0.529717
0.697604,0.790847,0.721929,0.529664
0.697534,0.790758,0.721856,0.529611
0.697465,0.790669,0.721784,0.529558
0.697395,0.790579,0.721712,0.529505
0.697325,0.79049,0.72164,0.529452
0.697255,0.790401,0.721568,0.529399
0.697186,0.790312,0.721495,0.529346
0.697116,0.790223,0.721423,0.529293
0.697046,0.790134,0.721351,0.52924
0.696977,0.790045,0.721279,0.529187
0.696907,0.789956,0.721207,0.529135
0.696837,0.789867,0.721135,0.529082
0.696768,0.789778,0.721063,0.529029
0.696698,0.789689,0.720991,0.528976
0.696628,0.7896,0.720918,0.528923
0.696559,0.789511,0.720846,0.52887
0.696489,0.789422,0.720774,0.528817
0.696419,0.789334,0.720702,0.528764
0.69635,0.789245,0.72063,0.528711
0.69628,0.789156,0.720558,0.528658
0.69621,0.789067,0.720486,0.528606
0.696141,0.788978,0.720414,0.528553
0.696071,0.788889,0.720342,0.5285
0.696001,0.7888,0.72027,0.528447
0.695932,0.788711,0.720198,0.528394
0.695862,0.788623,0.720126,0.528341
0.695793,0.788534,0.720054,0.528289
0.695723,0.788445,0.719982,0.528236
0.695654,0.788356,0.71991,0.528183
0.695584,0.788267,0.719838,0.52813
0.695514,0.788178,0.719766,0.528077
0.695445,0.78809,0.719694,0.528024
0.695375,0.788001,0.719622,0.527972
0.695306,0.787912,0.71955,0.527919
0.695236,0.787823,0.719478,0.527866
0.695167,0.787735,0.719406,0.527813
0.695097,0.787646,0.719334,0.52776
0.695028,0.787557,0.719262,0.527708
0.694958,0.787468,0.71919,0.527655
0.694889,0.78738,0.719118,0.527602
0.694819,0.787291,0.719046,0.527549
0.69475,0.787202,0.718975,0.527497
0.69468,0.787114,0.718903,0.527444
0.694611,0.787025,0.718831,0.527391
0.694541,0.786936,0.718759,0.527338
0.694472,0.786848,0.718687,0.527286
0.694402,0.786759,0.718615,0.527233
0.694333,0.78667,0.718543,0.52718
0.694264,0.786582,0.718471,0.527128
0.694194,0.786493,0.7184,0.527075
0.694125,0.786405,0.718328,0.527022
0.694055,0.786316,0.718256,0.526969
0.693986,0.786227,0.718184,0.526917
0.693916,0.786139,0.718112,0.526864
0.693847,0.78605,0.71804,0.526811
0.693778,0.785962,0.717969,0.526759
0.693708,0.785873,0.717897,0.526706
0.693639,0.785785,0.717825,0.526653
0.69357,0.785696,0.717753,0.526601
0.6935,0.785608,0.717681,0.526548
0.693431,0.785519,0.71761,0.526495
0.693362,0.785431,0.717538,0.526443
0.693292,0.785342,0.717466,0.52639
0.693223,0.785254,0.717394,0.526337
0.693154,0.785165,0.717323,0.526285
0.693084,0.785077,0.717251,0.526232
0.693015,0.784988,0.717179,0.526179
0.692946,0.7849,0.717108,0.526127
0.692876,0.784812,0.717036,0.526074
0.692807,0.784723,0.716964,0.526022
0.692738,0.784635,0.716892,0.525969
0.692669,0.784546,0.716821,0.525916
0.692599,0.784458,0.716749,0.525864
0.69253,0.78437,0.716677,0.525811
0.692461,0.784281,0.716606,0.525759
0.692391,0.784193,0.716534,0.525706
0.692322,0.784105,0.716462,0.525654
0.692253,0.784016,0.716391,0.525601
0.692184,0.783928,0.716319,0.525548
0.692115,0.78384,0.716247,0.525496
0.692045,0.783751,0.716176,0.525443
0.691976,0.783663,0.716104,0.525391
0.691907,0.783575,0.716033,0.525338
0.691838,0.783486,0.715961,0.525286
0.691769,0.783398,0.715889,0.525233
0.691699,0.78331,0.715818,0.525181
0.69163,0.783222,0.715746,0.525128
0.691561,0.783133,0.715675,0.525076
0.691492,0.783045,0.715603,0.525023
0.691423,0.782957,0.715532,0.524971
0.691354,0.782869,0.71546,0.524918
0.691284,0.782781,0.715388,0.524866
0.691215,0.782692,0.715317,0.524813
0.691146,0.782604,0.715245,0.524761
0.691077,0.782516,0.715174,0.524708
0.691008,0.782428,0.715102,0.524656
0.690939,0.78234,0.715031,0.524603
0.69087,0.782252,0.714959,0.524551
0.690801,0.782164,0.714888,0.524498
0.690732,0.782075,0.714816,0.524446
0.690663,0.781987,0.714745,0.524393
0.690594,0.781899,0.714673,0.524341
0.690524,0.781811,0.714602,0.524289
0.690455,0.781723,0.71453,0.524236
0.690386,0.781635,0.714459,0.524184
0.690317,0.781547,0.714388,0.524131
0.690248,0.781459,0.714316,0.524079
0.690179,0.781371,0.714245,0.524026
0.69011,0.781283,0.714173,0.523974
0.690041,0.781195,0.714102,0.523922
0.689972,0.781107,0.71403,0.523869
0.689903,0.781019,0.713959,0.523817
0.689834,0.780931,0.713888,0.523765
0.689765,0.780843,0.713816,0.523712
0.689696,0.780755,0.713745,0.52366
0.689627,0.780667,0.713673,0.523607
0.689558,0.780579,0.713602,0.523555
0.689489,0.780491,0.713531,0.523503
0.68942,0.780403,0.713459,0.52345
0.689352,0.780315,0.713388,0.523398
0.689283,0.780227,0.713317,0.523346
0.689214,0.78014,0.713245,0.523293
0.689145,0.780052,0.713174,0.523241
0.689076,0.779964,0.713103,0.523189
0.689007,0.779876,0.713031,0.523136
0.688938,0.779788,0.71296,0.523084
0.688869,0.7797,0.712889,0.523032
0.6888,0.779612,0.712818,0.522979
0.688731,0.779525,0.712746,0.522927
0.688662,0.779437,0.712675,0.522875
0.688594,0.779349,0.712604,0.522823
0.688525,0.779261,0.712532,0.52277
0.688456,0.779173,0.712461,0.522718
0.688387,0.779086,0.71239,0.522666
0.688318,0.778998,0.712319,0.522613
0.688249,0.77891,0.712248,0.522561
0.688181,0.778822,0.712176,0.522509
0.688112,0.778735,0.712105,0.522457
0.688043,0.778647,0.712034,0.522404
0.687974,0.778559,0.711963,0.522352
0.687905,0.778471,0.711891,0.5223
0.687837,0.778384,0.71182,0.522248
0.687768,0.778296,0.711749,0.522195
0.687699,0.778208,0.711678,0.522143
0.68763,0.778121,0.711607,0.522091
0.687561,0.778033,0.711536,0.522039
0.687493,0.777945,0.711464,0.521987
0.687424,0.777858,0.711393,0.521934
0.687355,0.77777,0.711322,0.521882
0.687286,0.777683,0.711251,0.52183
0.687218,0.777595,0.71118,0.521778
0.687149,0.777507,0.711109,0.521726
0.68708,0.77742,0.711038,0.521674
0.687012,0.777332,0.710967,0.521621
0.686943,0.777245,0.710895,0.521569
0.686874,0.777157,0.710824,0.521517
0.686805,0.77707,0.710753,0.521465
0.686737,0.776982,0.710682,0.521413
0.686668,0.776894,0.710611,0.521361
0.686599,0.776807,0.71054,0.521308
0.686531,0.776719,0.710469,0.521256
0.686462,0.776632,0.710398,0.521204
0.686394,0.776544,0.731637,0.521152
0.685982,0.776457,0.731564,0.5211
0.68557,0.77637,0.73149,0.521048
0.685159,0.776282,0.731417,0.520996
0.684748,0.776195,0.731344,0.520944
0.684337,0.776107,0.731271,0.520892
0.683926,0.77602,0.731198,0.520839
0.683516,0.775932,0.731125,0.520787
0.683106,0.775845,0.731052,0.520735
0.682696,0.775758,0.730979,0.520683
0.682287,0.77567,0.730905,0.520631
0.681877,0.775583,0.730832,0.520579
0.681468,0.775495,0.730759,0.520527
0.681059,0.775408,0.730686,0.520475
0.680651,0.775321,0.730613,0.520423
0.680242,0.775233,0.73054,0.520371
0.679834,0.775146,0.730467,0.520319
0.679426,0.775059,0.730394,0.520267
0.679019,0.774971,0.730321,0.520215
0.678611,0.774884,0.730248,0.520163
0.678204,0.774797,0.730175,0.520111
0.677797,0.77471,0.730102,0.520059
0.677391,0.774622,0.730029,0.520007
0.676984,0.774535,0.729956,0.519955
0.676578,0.774448,0.729883,0.519903
0.676172,0.774361,0.72981,0.519851
0.675767,0.774273,0.729737,0.519799
0.675361,0.774186,0.729664,0.519747
0.674956,0.774099,0.729591,0.519695
0.674551,0.774012,0.729518,0.519643
0.674146,0.773924,0.729445,0.519591
0.673742,0.773837,0.729372,0.519539
0.673338,0.77375,0.729299,0.519487
0.672934,0.773663,0.729226,0.519435
0.67253,0.773576,0.729153,0.519383
0.672126,0.773489,0.72908,0.519331
0.671723,0.773402,0.729007,0.519279
0.67132,0.773314,0.728935,0.519227
0.670917,0.773227,0.728862,0.519175
0.67085,0.77314,0.728789,0.519123
0.670783,0.773053,0.728716,0.519072
0.670716,0.772966,0.728643,0.51902
0.670649,0.772879,0.72857,0.518968
0.670582,0.772792,0.728497,0.518916
0.670515,0.772705,0.728424,0.518864
0.670448,0.772618,0.728352,0.518812
0.670381,0.772531,0.728279,0.51876
0.670314,0.772444,0.728206,0.518708
0.670247,0.772357,0.728133,0.518656
0.67018,0.77227,0.72806,0.518605
0.670113,0.772183,0.727988,0.518553
0.670046,0.772096,0.727915,0.518501
0.669979,0.772009,0.727842,0.518449
0.669912,0.771922,0.727769,0.518397
0.669845,0.771835,0.727696,0.518345
0.669778,0.771748,0.727624,0.518293
0.669711,0.771661,0.727551,0.518242
0.669644,0.771574,0.727478,0.51819
0.669577,0.771487,0.727405,0.518138
0.66951,0.7714,0.727333,0.518086
0.669443,0.771313,0.72726,0.518034
0.669376,0.771226,0.727187,0.517983
0.669309,0.771139,0.727114,0.517931
0.669242,0.771053,0.727042,0.517879
0.669175,0.770966,0.726969,0.517827
0.669108,0.770879,0.726896,0.517775
0.669041,0.770792,0.726824,0.517724
0.668975,0.770705,0.726751,0.517672
0.668908,0.770618,0.726678,0.51762
0.668841,0.770532,0.726606,0.517568
0.668774,0.770445,0.726533,0.517517
0.668707,0.770358,0.72646,0.517465
0.66864,0.770271,0.726388,0.517413
0.668573,0.770184,0.726315,0.517361
0.668506,0.770098,0.726242,0.51731
0.66844,0.770011,0.72617,0.517258
0.668373,0.769924,0.726097,0.517206
0.668306,0.769837,0.726024,0.517154
0.668239,0.769751,0.725952,0.517103
0.668172,0.769664,0.725879,0.517051
0.668105,0.769577,0.725807,0.516999
0.668039,0.769491,0.725734,0.516948
0.667972,0.769404,0.725662,0.516896
0.667905,0.769317,0.725589,0.516844
0.667838,0.769231,0.725516,0.516793
0.667771,0.769144,0.725444,0.516741
0.667705,0.769057,0.725371,0.516689
0.667638,0.768971,0.725299,0.516638
0.667571,0.768884,0.725226,0.516586
0.667504,0.768797,0.725154,0.516534
0.667438,0.768711,0.725081,0.516483
0.667371,0.768624,0.725009,0.516431
0.667304,0.768538,0.724936,0.516379
0.667237,0.768451,0.724864,0.516328
0.667171,0.768365,0.724791,0.516276
0.667104,0.768278,0.724719,0.516224
0.667037,0.768191,0.724646,0.516173
0.666971,0.768105,0.724574,0.516121
0.666904,0.768018,0.724501,0.516069
0.666837,0.767932,0.724429,0.516018
0.66677,0.767845,0.724356,0.515966
0.666704,0.767759,0.724284,0.515915
0.666637,0.767672,0.724212,0.515863
0.66657,0.767586,0.724139,0.515812
0.666504,0.767499,0.724067,0.51576
0.666437,0.767413,0.723994,0.515708
0.66637,0.767327,0.723922,0.515657
0.666304,0.76724,0.72385,0.515605
0.666237,0.767154,0.723777,0.515554
0.666171,0.767067,0.723705,0.515502
0.666104,0.766981,0.723632,0.515451
0.666037,0.766894,0.72356,0.515399
0.665971,0.766808,0.723488,0.515347
0.665904,0.766722,0.723415,0.515296
0.665838,0.766635,0.723343,0.515244
0.665771,0.766549,0.723271,0.515193
0.665704,0.766463,0.723198,0.515141
0.665638,0.766376,0.723126,0.51509
0.665571,0.76629,0.723054,0.515038
0.665505,0.766204,0.722981,0.514987
0.665438,0.766117,0.722909,0.514935
0.665372,0.766031,0.722837,0.514884
0.665305,0.765945,0.722765,0.514832
0.665239,0.765858,0.722692,0.514781
0.665172,0.765772,0.72262,0.514729
0.665106,0.765686,0.722548,0.514678
0.665039,0.7656,0.722475,0.514626
0.664973,0.765513,0.722403,0.514575
0.664906,0.765427,0.722331,0.514524
0.66484,0.765341,0.722259,0.514472
0.664773,0.765255,0.722187,0.514421
0.664707,0.765168,0.722114,0.514369
0.66464,0.765082,0.722042,0.514318
0.664574,0.764996,0.72197,0.514266
0.664507,0.76491,0.721898,0.514215
0.664441,0.764824,0.721826,0.514163
0.664374,0.764738,0.721753,0.514112
0.664308,0.764651,0.721681,0.514061
0.664241,0.764565,0.721609,0.514009
0.664175,0.764479,0.721537,0.513958
0.664109,0.764393,0.721465,0.513906
0.664042,0.764307,0.721393,0.513855
0.663976,0.764221,0.72132,0.513804
0.663909,0.764135,0.721248,0.513752
0.663843,0.764049,0.721176,0.513701
0.663777,0.763963,0.721104,0.51365
0.66371,0.763877,0.721032,0.513598
0.663644,0.763791,0.72096,0.513547
0.663577,0.763704,0.720888,0.513495
0.663511,0.763618,0.720816,0.513444
0.663445,0.763532,0.720744,0.513393
0.663378,0.763446,0.720671,0.513341
0.663312,0.76336,0.720599,0.51329
0.663246,0.763274,0.720527,0.513239
0.663179,0.763188,0.720455,0.513187
0.663113,0.763102,0.720383,0.513136
0.663047,0.763016,0.720311,0.513085
0.66298,0.762931,0.720239,0.513033
0.662914,0.762845,0.720167,0.512982
0.662848,0.762759,0.720095,0.512931
0.662782,0.762673,0.720023,0.51288
0.662715,0.762587,0.719951,0.512828
0.662649,0.762501,0.719879,0.512777
0.662583,0.762415,0.719807,0.512726
0.662517,0.762329,0.719735,0.512674
0.66245,0.762243,0.719663,0.512623
0.662384,0.762157,0.719591,0.512572
0.662318,0.762072,0.719519,0.512521
0.662252,0.761986,0.719447,0.512469
0.662185,0.7619,0.719375,0.512418
0.662119,0.761814,0.719303,0.512367
0.662053,0.761728,0.719231,0.512316
0.661987,0.761642,0.71916,0.512264
0.661921,0.761557,0.719088,0.512213
0.661854,0.761471,0.719016,0.512162
0.661788,0.761385,0.718944,0.512111
0.661722,0.761299,0.718872,0.51206
0.661656,0.761214,0.7188,0.512008
0.66159,0.761128,0.718728,0.511957
0.661523,0.761042,0.718656,0.511906
0.661457,0.760956,0.718584,0.511855
0.661391,0.760871,0.718513,0.511804
0.661325,0.760785,0.718441,0.511752
0.661259,0.760699,0.718369,0.511701
0.661193,0.760613,0.718297,0.51165
0.661127,0.760528,0.718225,0.511599
0.661061,0.760442,0.718153,0.511548
0.660994,0.760356,0.718082,0.511497
0.660928,0.760271,0.71801,0.511445
0.660862,0.760185,0.717938,0.511394
0.660796,0.7601,0.717866,0.511343
0.66073,0.760014,0.717794,0.511292
0.660664,0.759928,0.717723,0.511241
0.660598,0.759843,0.717651,0.51119
0.660532,0.759757,0.717579,0.511139
0.660466,0.759671,0.717507,0.511088
0.6604,0.759586,0.717436,0.511036
0.660334,0.7595,0.717364,0.510985
0.660268,0.759415,0.717292,0.510934
0.660202,0.759329,0.71722,0.510883
0.660136,0.759244,0.717149,0.510832
0.66007,0.759158,0.717077,0.510781
0.660004,0.759073,0.717005,0.51073
0.659938,0.758987,0.716934,0.510679
0.659872,0.758902,0.716862,0.510628
0.659806,0.758816,0.71679,0.510577
0.65974,0.758731,0.716718,0.510526
0.659674,0.758645,0.716647,0.510475
0.659608,0.75856,0.716575,0.510424
0.659542,0.758474,0.716503,0.510373
0.659476,0.758389,0.716432,0.510321
0.65941,0.758303,0.71636,0.51027
0.659344,0.758218,0.716289,0.510219
0.659278,0.758133,0.716217,0.510168
0.659212,0.758047,0.716145,0.510117
0.659146,0.757962,0.716074,0.510066
0.65908,0.757876,0.716002,0.510015
0.659014,0.757791,0.71593,0.509964
0.658948,0.757706,0.715859,0.509913
0.658883,0.75762,0.715787,0.509862
0.658817,0.757535,0.715716,0.509811
0.658751,0.75745,0.715644,0.50976
0.658685,0.757364,0.715573,0.509709
0.658619,0.757279,0.715501,0.509658
0.658553,0.757194,0.715429,0.509607
0.658487,0.757108,0.715358,0.509557
0.658421,0.757023,0.715286,0.509506
0.658356,0.756938,0.715215,0.509455
0.65829,0.756853,0.715143,0.509404
0.658224,0.756767,0.715072,0.509353
0.658158,0.756682,0.715,0.509302
0.658092,0.756597,0.714929,0.509251
0.658026,0.756512,0.714857,0.5092
0.657961,0.756426,0.714786,0.509149
0.657895,0.756341,0.714714,0.509098
0.657829,0.756256,0.714643,0.509047
0.657763,0.756171,0.714571,0.508996
0.657698,0.756086,0.7145,0.508945
0.657632,0.756,0.714429,0.508895
0.657566,0.755915,0.714357,0.508844
0.6575,0.75583,0.714286,0.508793
0.657434,0.755745,0.714214,0.508742
0.657369,0.75566,0.714143,0.508691
0.657303,0.755575,0.714071,0.50864
0.657237,0.75549,0.714,0.508589
0.657172,0.755404,0.713929,0.508538
0.657106,0.755319,0.713857,0.508488
0.65704,0.755234,0.713786,0.508437
0.656974,0.755149,0.713714,0.508386
0.656909,0.755064,0.713643,0.508335
0.656843,0.754979,0.713572,0.508284
0.656777,0.754894,0.7135,0.508233
0.656712,0.754809,0.713429,0.508183
0.656646,0.754724,0.713358,0.508132
0.65658,0.754639,0.713286,0.508081
0.656515,0.754554,0.713215,0.50803
0.656449,0.754469,0.713144,0.507979
0.656383,0.754384,0.713072,0.507928
0.656318,0.754299,0.713001,0.507878
0.656252,0.754214,0.71293,0.507827
0.656186,0.754129,0.712858,0.507776
0.656121,0.754044,0.712787,0.507725
0.656055,0.753959,0.712716,0.507675
0.65599,0.753874,0.712645,0.507624
0.655924,0.753789,0.712573,0.507573
0.655858,0.753704,0.712502,0.507522
0.655793,0.753619,0.712431,0.507472
0.655727,0.753535,0.71236,0.507421
0.655662,0.75345,0.712288,0.50737
0.655596,0.753365,0.712217,0.507319
0.655531,0.75328,0.712146,0.507269
0.655465,0.753195,0.712075,0.507218
0.6554,0.75311,0.712003,0.507167
0.655334,0.753025,0.711932,0.507116
0.655268,0.752941,0.711861,0.507066
0.655203,0.752856,0.71179,0.507015
0.655137,0.752771,0.711719,0.506964
0.655072,0.752686,0.711648,0.506914
0.655006,0.752601,0.711576,0.506863
0.654941,0.752517,0.711505,0.506812
0.654875,0.752432,0.711434,0.506762
0.65481,0.752347,0.711363,0.506711
0.654744,0.752262,0.711292,0.50666
0.654679,0.752178,0.711221,0.50661
0.654613,0.752093,0.71115,0.506559
0.654548,0.752008,0.711078,0.506508
0.654483,0.751923,0.711007,0.506458
0.654417,0.751839,0.710936,0.506407
0.654352,0.751754,0.710865,0.506356
0.654286,0.751669,0.710794,0.506306
0.654221,0.751585,0.710723,0.506255
0.654155,0.7515,0.710652,0.506204
0.65409,0.751415,0.710581,0.506154
0.654025,0.751331,0.71051,0.506103
0.653959,0.751246,0.710439,0.506053
0.653894,0.751161,0.710368,0.506002
0.653828,0.751077,0.731606,0.505951
0.653436,0.750992,0.731532,0.505901
0.653044,0.750908,0.731459,0.50585
0.652652,0.750823,0.731386,0.5058
0.652261,0.750738,0.731313,0.505749
0.651869,0.750654,0.73124,0.505698
0.651478,0.750569,0.731167,0.505648
0.651087,0.750485,0.731094,0.505597
0.650697,0.7504,0.73102,0.505547
0.650306,0.750316,0.730947,0.505496
0.649916,0.750231,0.730874,0.505446
0.649526,0.750147,0.730801,0.505395
0.649137,0.750062,0.730728,0.505345
0.648747,0.749978,0.730655,0.505294
0.648358,0.749893,0.730582,0.505243
0.647969,0.749809,0.730509,0.505193
0.64758,0.749724,0.730436,0.505142
0.647192,0.74964,0.730363,0.505092
0.646803,0.749555,0.73029,0.505041
0.646415,0.749471,0.730217,0.504991
0.646028,0.749386,0.730144,0.50494
0.64564,0.749302,0.730071,0.50489
0.645253,0.749218,0.729998,0.504839
0.644866,0.749133,0.729925,0.504789
0.644479,0.749049,0.729852,0.504738
0.644092,0.748964,0.729779,0.504688
0.644028,0.74888,0.729706,0.504637
0.643963,0.748796,0.729633,0.504587
0.643899,0.748711,0.72956,0.504537
0.643834,0.748627,0.729487,0.504486
0.64377,0.748543,0.729414,0.504436
0.643706,0.748458,0.729341,0.504385
0.643641,0.748374,0.729268,0.504335
0.643577,0.74829,0.729195,0.504284
0.643513,0.748205,0.729122,0.504234
0.643448,0.748121,0.729049,0.504183
0.643384,0.748037,0.728976,0.504133
0.64332,0.747953,0.728903,0.504083
0.643255,0.747868,0.728831,0.504032
0.643191,0.747784,0.728758,0.503982
0.643127,0.7477,0.728685,0.503931
0.643062,0.747616,0.728612,0.503881
0.642998,0.747531,0.728539,0.503831
0.642934,0.747447,0.728466,0.50378
0.642869,0.747363,0.728393,0.50373
0.642805,0.747279,0.728321,0.50368
0.642741,0.747195,0.728248,0.503629
0.642677,0.74711,0.728175,0.503579
0.642612,0.747026,0.728102,0.503528
0.642548,0.746942,0.728029,0.503478
0.642484,0.746858,0.727956,0.503428
0.642419,0.746774,0.727884,0.503377
0.642355,0.74669,0.727811,0.503327
0.642291,0.746606,0.727738,0.503277
0.642227,0.746522,0.727665,0.503226
0.642163,0.746437,0.727593,0.503176
0.642098,0.746353,0.72752,0.503126
0.642034,0.746269,0.727447,0.503075
0.64197,0.746185,0.727374,0.503025
0.641906,0.746101,0.727302,0.502975
0.641842,0.746017,0.727229,0.502925
0.641777,0.745933,0.727156,0.502874
