energy,productivity,fun,hunger
0.74896,0.681826,0.724571,0.838091
0.748885,0.681778,0.724498,0.838007
0.748435,0.681731,0.724426,0.837924
0.747986,0.681683,0.724353,0.83784
0.747538,0.681636,0.724281,0.837756
0.747089,0.681588,0.724209,0.837672
0.746641,0.681541,0.724136,0.837588
0.746193,0.681493,0.724064,0.837505
0.745745,0.681446,0.723991,0.837421
0.745298,0.681398,0.723919,0.837337
0.744851,0.681351,0.723847,0.837254
0.744404,0.681303,0.723774,0.83717
0.743957,0.681256,0.723702,0.837086
0.743511,0.681208,0.723629,0.837002
0.743065,0.681161,0.723557,0.836919
0.742619,0.681114,0.723485,0.836835
0.742173,0.681066,0.723412,0.836751
0.741728,0.681019,0.72334,0.836668
0.741283,0.680971,0.723268,0.836584
0.740838,0.680924,0.723195,0.8365
0.740394,0.680876,0.723123,0.836417
0.73995,0.680829,0.723051,0.836333
0.739506,0.680781,0.722978,0.836249
0.739062,0.680734,0.722906,0.836166
0.738619,0.680686,0.722834,0.836082
0.738176,0.680639,0.722762,0.835999
0.737733,0.680592,0.722689,0.835915
0.73729,0.680544,0.722617,0.835831
0.736848,0.680497,0.722545,0.835748
0.736406,0.680449,0.722473,0.835664
0.735964,0.680402,0.7224,0.835581
0.735522,0.680355,0.722328,0.835497
0.735081,0.680307,0.722256,0.835413
0.73464,0.68026,0.722184,0.83533
0.734199,0.680212,0.722111,0.835246
0.733759,0.680165,0.722039,0.835163
0.733319,0.680117,0.721967,0.835079
0.732879,0.68007,0.721895,0.834996
0.732439,0.680023,0.721823,0.834912
0.732,0.679975,0.72175,0.834829
0.73156,0.679928,0.721678,0.834745
0.731122,0.679881,0.721606,0.834662
0.730683,0.679833,0.721534,0.834578
0.730245,0.679786,0.721462,0.834495
0.729806,0.679738,0.72139,0.834412
0.729369,0.679691,0.721317,0.834328
0.728931,0.679644,0.721245,0.834245
0.728494,0.679596,0.721173,0.834161
0.728057,0.679549,0.721101,0.834078
0.72762,0.679502,0.721029,0.833994
0.727183,0.679454,0.720957,0.833911
0.726747,0.679407,0.720885,0.833828
0.726311,0.67936,0.720813,0.833744
0.725875,0.679312,0.720741,0.833661
0.72544,0.679265,0.720668,0.833578
0.725005,0.679218,0.720596,0.833494
0.72457,0.67917,0.720524,0.833411
0.724135,0.679123,0.720452,0.833327
0.7237,0.679076,0.72038,0.833244
0.723266,0.679028,0.720308,0.833161
0.722832,0.678981,0.720236,0.833077
0.722399,0.678934,0.720164,0.832994
0.721965,0.678886,0.720092,0.832911
0.721532,0.678839,0.72002,0.832828
0.721099,0.678792,0.719948,0.832744
0.720306,0.679423,0.718436,0.832661
0.719514,0.680055,0.716928,0.832578
0.718722,0.680688,0.715422,0.832495
0.717932,0.681321,0.71392,0.832411
0.717142,0.681955,0.712421,0.832328
0.716353,0.682589,0.710925,0.832245
0.715566,0.683224,0.709432,0.832162
0.714779,0.68386,0.707943,0.832078
0.713992,0.684496,0.706456,0.831995
0.713207,0.685133,0.704973,0.831912
0.712423,0.68577,0.703492,0.831829
0.711639,0.686408,0.702015,0.831746
0.710856,0.687046,0.700541,0.831662
0.710074,0.687686,0.69907,0.831579
0.709293,0.688325,0.697602,0.831496
0.708513,0.688966,0.696137,0.831413
0.707734,0.689607,0.694676,0.83133
0.706955,0.690248,0.693217,0.831247
0.706178,0.69089,0.691761,0.831164
0.705401,0.691533,0.690309,0.83108
0.704625,0.692176,0.688859,0.830997
0.70385,0.69282,0.687413,0.830914
0.703076,0.693465,0.685969,0.830831
0.702303,0.69411,0.684529,0.830748
0.70153,0.694755,0.683092,0.830665
0.700759,0.695402,0.681657,0.830582
0.699988,0.696048,0.680226,0.830499
0.699218,0.696696,0.678798,0.830416
0.698449,0.697344,0.677372,0.830333
0.697681,0.697993,0.67595,0.83025
0.696913,0.698642,0.674531,0.830167
0.696147,0.699292,0.673114,0.830084
0.695381,0.699943,0.671701,0.830001
0.694616,0.700594,0.67029,0.829918
0.693852,0.701245,0.668883,0.829835
0.693089,0.701898,0.667478,0.829752
0.692327,0.702551,0.666077,0.829669
0.691565,0.703204,0.664678,0.829586
0.690805,0.703858,0.663282,0.829503
0.690045,0.704513,0.66189,0.82942
0.689286,0.705168,0.6605,0.829337
0.688528,0.705824,0.659113,0.829254
0.68777,0.706481,0.657729,0.829171
0.687014,0.707138,0.656348,0.829088
0.686258,0.707796,0.65497,0.829005
0.685503,0.708454,0.653594,0.828922
0.684749,0.709114,0.652222,0.828839
0.683996,0.709773,0.650852,0.828757
0.683244,0.710433,0.649486,0.828674
0.682492,0.711094,0.648122,0.828591
0.681742,0.711756,0.646761,0.828508
0.680992,0.712418,0.645403,0.828425
0.680243,0.713081,0.644048,0.828342
0.679495,0.713744,0.642695,0.828259
0.678747,0.714408,0.641346,0.828177
0.678001,0.715073,0.639999,0.828094
0.677255,0.715738,0.638655,0.828011
0.67651,0.716404,0.637314,0.827928
0.675766,0.71707,0.635976,0.827845
0.675023,0.717737,0.634641,0.827763
0.67428,0.718405,0.633308,0.82768
0.673539,0.719073,0.631978,0.827597
0.672798,0.719742,0.630651,0.827514
0.672058,0.720411,0.629327,0.827431
0.671319,0.721082,0.628005,0.827349
0.67058,0.721752,0.626687,0.827266
0.669843,0.722424,0.625371,0.827183
0.669106,0.723096,0.624058,0.827101
0.66837,0.723768,0.622747,0.827018
0.667635,0.724442,0.62144,0.826935
0.666901,0.725116,0.620135,0.826852
0.666167,0.72579,0.618833,0.82677
0.665434,0.726465,0.617533,0.826687
0.664702,0.727141,0.616236,0.826604
0.663971,0.727818,0.614942,0.826522
0.663241,0.728495,0.613651,0.826439
0.662511,0.729172,0.612363,0.826356
0.661783,0.729851,0.611077,0.826274
0.661055,0.73053,0.609794,0.826191
0.660328,0.731209,0.608513,0.826109
0.659601,0.731889,0.607235,0.826026
0.658876,0.73257,0.60596,0.825943
0.658151,0.733252,0.604688,0.825861
0.657427,0.733934,0.603418,0.825778
0.656704,0.734616,0.602151,0.825696
0.655982,0.7353,0.600887,0.825613
0.65526,0.735984,0.599625,0.82553
0.65454,0.736668,0.598366,0.825448
0.65382,0.737354,0.597109,0.825365
0.653101,0.73804,0.595856,0.825283
0.652382,0.738726,0.594605,0.8252
0.651665,0.739413,0.593356,0.825118
0.650948,0.740101,0.59211,0.825035
0.650232,0.74079,0.590867,0.824953
0.649517,0.741479,0.589626,0.82487
0.648802,0.742169,0.588388,0.824788
0.648089,0.742859,0.587152,0.824705
0.647376,0.74355,0.58592,0.824623
0.646664,0.744242,0.584689,0.82454
0.645953,0.744934,0.583461,0.824458
0.645242,0.745627,0.582236,0.824375
0.644532,0.746321,0.581014,0.824293
0.643824,0.747015,0.579794,0.824211
0.643115,0.74771,0.578576,0.824128
0.643051,0.747658,0.578518,0.824046
0.642987,0.747606,0.595814,0.823963
0.642601,0.747554,0.613627,0.823881
0.642216,0.747501,0.631973,0.823799
0.64183,0.747449,0.650867,0.823716
0.641445,0.747397,0.670326,0.823634
0.64106,0.747345,0.690367,0.823551
0.640676,0.747293,0.711007,0.823469
0.640291,0.747241,0.732264,0.823387
0.639907,0.747189,0.732191,0.823304
0.639523,0.747137,0.732117,0.823222
0.63914,0.747085,0.732044,0.82314
0.638756,0.747033,0.731971,0.823057
0.638373,0.746981,0.731898,0.822975
0.63799,0.746929,0.731825,0.822893
0.637607,0.746877,0.731751,0.822811
0.637225,0.746825,0.731678,0.822728
0.636842,0.746773,0.731605,0.822646
0.63646,0.746721,0.731532,0.822564
0.636078,0.746668,0.731459,0.822482
0.635697,0.746616,0.731386,0.822399
0.635315,0.746564,0.731312,0.822317
0.634934,0.746512,0.731239,0.822235
0.634553,0.74646,0.731166,0.822153
0.634173,0.746408,0.731093,0.82207
0.633792,0.746356,0.73102,0.821988
0.633412,0.746304,0.730947,0.821906
0.633032,0.746252,0.730874,0.821824
0.632652,0.7462,0.730801,0.821742
0.632273,0.746148,0.730728,0.821659
0.632209,0.746096,0.730654,0.821577
0.632146,0.746044,0.730581,0.821495
0.632083,0.745992,0.730508,0.821413
0.63202,0.74594,0.730435,0.821331
0.631956,0.745888,0.730362,0.821249
0.631893,0.745836,0.730289,0.821167
0.63183,0.745784,0.730216,0.821084
0.631767,0.745732,0.730143,0.821002
0.631704,0.745681,0.73007,0.82092
0.631641,0.745629,0.729997,0.820838
0.631577,0.745577,0.729924,0.820756
0.631514,0.745525,0.729851,0.820674
0.631451,0.745473,0.729778,0.820592
0.631388,0.745421,0.729705,0.82051
0.631325,0.745369,0.729632,0.820428
0.631262,0.745317,0.729559,0.820346
0.631199,0.745265,0.729486,0.820264
0.631135,0.745213,0.729413,0.820182
0.631072,0.745161,0.72934,0.8201
0.631009,0.745109,0.729267,0.820018
0.630946,0.745057,0.729195,0.819936
0.630883,0.745005,0.729122,0.819854
0.63082,0.744953,0.729049,0.819772
0.630757,0.744901,0.728976,0.81969
0.630694,0.74485,0.728903,0.819608
0.630631,0.744798,0.72883,0.819526
0.630568,0.744746,0.728757,0.819444
0.630505,0.744694,0.728684,0.819362
0.630442,0.744642,0.728611,0.81928
0.630378,0.74459,0.728539,0.819198
0.630315,0.744538,0.728466,0.819116
0.630252,0.744486,0.728393,0.819034
0.630189,0.744434,0.72832,0.818952
0.630126,0.744383,0.728247,0.81887
0.630063,0.744331,0.728174,0.818788
0.63,0.744279,0.728102,0.818707
0.629937,0.744227,0.728029,0.818625
0.629874,0.744175,0.727956,0.818543
0.629811,0.744123,0.727883,0.818461
0.629748,0.744071,0.72781,0.818379
0.629685,0.74402,0.727738,0.818297
0.629622,0.743968,0.727665,0.818216
0.629559,0.743916,0.727592,0.818134
0.629497,0.743864,0.727519,0.818052
0.629434,0.743812,0.727446,0.81797
0.629371,0.74376,0.727374,0.817888
0.629308,0.743709,0.727301,0.817806
0.629245,0.743657,0.727228,0.817725
0.629182,0.743605,0.727156,0.817643
0.629119,0.743553,0.727083,0.817561
0.629056,0.743501,0.72701,0.817479
0.628993,0.743449,0.726937,0.817398
0.62893,0.743398,0.726865,0.817316
0.628867,0.743346,0.726792,0.817234
0.628804,0.743294,0.726719,0.817152
0.628742,0.743242,0.726647,0.817071
0.628679,0.74319,0.726574,0.816989
0.628616,0.743139,0.726501,0.816907
0.628553,0.743087,0.726429,0.816826
0.62849,0.743035,0.726356,0.816744
0.628427,0.742983,0.726283,0.816662
0.628364,0.742932,0.726211,0.816581
0.628302,0.74288,0.726138,0.816499
0.628239,0.742828,0.726066,0.816417
0.628176,0.742776,0.725993,0.816336
0.628113,0.742724,0.72592,0.816254
0.62805,0.742673,0.725848,0.816172
0.627987,0.742621,0.725775,0.816091
0.627925,0.742569,0.725703,0.816009
0.627862,0.742517,0.72563,0.815928
0.627799,0.742466,0.725557,0.815846
0.627736,0.742414,0.725485,0.815764
0.627674,0.742362,0.725412,0.815683
0.627611,0.742311,0.72534,0.815601
0.627548,0.742259,0.725267,0.81552
0.627485,0.742207,0.725195,0.815438
0.627423,0.742155,0.725122,0.815357
0.62736,0.742104,0.72505,0.815275
0.627297,0.742052,0.724977,0.815194
0.627234,0.742,0.724905,0.815112
0.627172,0.741949,0.724832,0.815031
0.627109,0.741897,0.72476,0.814949
0.627046,0.741845,0.724687,0.814868
0.626983,0.741793,0.724615,0.814786
0.626921,0.741742,0.724542,0.814705
0.626858,0.74169,0.72447,0.814623
0.626795,0.741638,0.724397,0.814542
0.626733,0.741587,0.724325,0.81446
0.62667,0.741535,0.724253,0.814379
0.626607,0.741483,0.72418,0.814297
0.626545,0.741432,0.724108,0.814216
0.626482,0.74138,0.724035,0.814134
0.626419,0.741328,0.723963,0.814053
0.626357,0.741277,0.723891,0.813972
0.626294,0.741225,0.723818,0.81389
0.626231,0.741173,0.723746,0.813809
0.626169,0.741122,0.723673,0.813727
0.626106,0.74107,0.723601,0.813646
0.626044,0.741018,0.723529,0.813565
0.625981,0.740967,0.723456,0.813483
0.625918,0.740915,0.723384,0.813402
0.625856,0.740864,0.723312,0.813321
0.625793,0.740812,0.723239,0.813239
0.625731,0.74076,0.723167,0.813158
0.625668,0.740709,0.723095,0.813077
0.625606,0.740657,0.723022,0.812995
0.625543,0.740605,0.72295,0.812914
0.62548,0.740554,0.722878,0.812833
0.625418,0.740502,0.722805,0.812752
0.625355,0.740451,0.722733,0.81267
0.625293,0.740399,0.722661,0.812589
0.62523,0.740347,0.722589,0.812508
0.625168,0.740296,0.722516,0.812426
0.625105,0.740244,0.722444,0.812345
0.625043,0.740193,0.722372,0.812264
0.62498,0.740141,0.7223,0.812183
0.624918,0.74009,0.722227,0.812102
0.624855,0.740038,0.722155,0.81202
0.624793,0.739986,0.722083,0.811939
0.62473,0.739935,0.722011,0.811858
0.624668,0.739883,0.721939,0.811777
0.624605,0.739832,0.721866,0.811696
0.624543,0.73978,0.721794,0.811614
0.62448,0.739729,0.721722,0.811533
0.624418,0.739677,0.72165,0.811452
0.624356,0.739626,0.721578,0.811371
0.624293,0.739574,0.721506,0.81129
0.624231,0.739522,0.721433,0.811209
0.624168,0.739471,0.721361,0.811128
0.624106,0.739419,0.721289,0.811046
0.624043,0.739368,0.721217,0.810965
0.623981,0.739316,0.721145,0.810884
0.623919,0.739265,0.721073,0.810803
0.623856,0.739213,0.721001,0.810722
0.623794,0.739162,0.720929,0.810641
0.623731,0.73911,0.720856,0.81056
0.623669,0.739059,0.720784,0.810479
0.623607,0.739007,0.720712,0.810398
0.623544,0.738956,0.72064,0.810317
0.623482,0.738904,0.720568,0.810236
0.62342,0.738853,0.720496,0.810155
0.623357,0.738801,0.720424,0.810074
0.623295,0.73875,0.720352,0.809993
0.623233,0.738698,0.72028,0.809912
0.62317,0.738647,0.720208,0.809831
0.623108,0.738595,0.720136,0.80975
0.623046,0.738544,0.720064,0.809669
0.622983,0.738492,0.719992,0.809588
0.622921,0.738441,0.71992,0.809507
0.622859,0.73839,0.719848,0.809426
0.622796,0.738338,0.719776,0.809345
0.622734,0.738287,0.719704,0.809264
0.622672,0.738235,0.719632,0.809183
0.62261,0.738184,0.71956,0.809102
0.622547,0.738132,0.719488,0.809021
0.622485,0.738081,0.719416,0.80894
0.622423,0.738029,0.719344,0.808859
0.622361,0.737978,0.719272,0.808779
0.622298,0.737927,0.7192,0.808698
0.622236,0.737875,0.719128,0.808617
0.622174,0.737824,0.719056,0.808536
0.622112,0.737772,0.718985,0.808455
0.62205,0.737721,0.718913,0.808374
0.621987,0.73767,0.718841,0.808293
0.621925,0.737618,0.718769,0.808213
0.621863,0.737567,0.718697,0.808132
0.621801,0.737515,0.718625,0.808051
0.621739,0.737464,0.718553,0.80797
0.621676,0.737413,0.718481,0.807889
0.621614,0.737361,0.71841,0.807809
0.621552,0.73731,0.718338,0.807728
0.62149,0.737258,0.718266,0.807647
0.621428,0.737207,0.718194,0.807566
0.621366,0.737156,0.718122,0.807485
0.621303,0.737104,0.71805,0.807405
0.621241,0.737053,0.717979,0.807324
0.621179,0.737002,0.717907,0.807243
0.621117,0.73695,0.717835,0.807163
0.621055,0.736899,0.717763,0.807082
0.620993,0.736847,0.717691,0.807001
0.620931,0.736796,0.71762,0.80692
0.620869,0.736745,0.717548,0.80684
0.620807,0.736693,0.717476,0.806759
0.620745,0.736642,0.717404,0.806678
0.620682,0.736591,0.717333,0.806598
0.62062,0.736539,0.717261,0.806517
0.620558,0.736488,0.717189,0.806436
0.620496,0.736437,0.717118,0.806356
0.620434,0.736385,0.717046,0.806275
0.620372,0.736334,0.716974,0.806194
0.62031,0.736283,0.716902,0.806114
0.620248,0.736232,0.716831,0.806033
0.620186,0.73618,0.716759,0.805953
0.620124,0.736129,0.716687,0.805872
0.620062,0.736078,0.716616,0.805791
0.62,0.736026,0.716544,0.805711
0.619938,0.735975,0.716472,0.80563
0.619876,0.735924,0.716401,0.80555
0.619814,0.735873,0.716329,0.805469
0.619752,0.735821,0.716257,0.805389
0.61969,0.73577,0.716186,0.805308
0.619628,0.735719,0.716114,0.805228
0.619566,0.735667,0.716043,0.805147
0.619504,0.735616,0.715971,0.805067
0.619442,0.735565,0.715899,0.804986
0.61938,0.735514,0.715828,0.804906
0.619318,0.735462,0.715756,0.804825
0.619256,0.735411,0.715685,0.804745
0.619195,0.73536,0.715613,0.804664
0.619133,0.735309,0.715542,0.804584
0.619071,0.735257,0.71547,0.804503
0.619009,0.735206,0.715398,0.804423
0.618947,0.735155,0.715327,0.804342
0.618885,0.735104,0.715255,0.804262
0.618823,0.735052,0.715184,0.804181
0.618761,0.735001,0.715112,0.804101
0.618699,0.73495,0.715041,0.804021
0.618637,0.734899,0.714969,0.80394
0.618576,0.734848,0.714898,0.80386
0.618514,0.734796,0.714826,0.803779
0.618452,0.734745,0.714755,0.803699
0.61839,0.734694,0.714683,0.803619
0.618328,0.734643,0.714612,0.803538
0.618266,0.734592,0.71454,0.803458
0.618205,0.73454,0.714469,0.803378
0.618143,0.734489,0.714398,0.803297
0.618081,0.734438,0.714326,0.803217
0.618019,0.734387,0.714255,0.803137
0.617957,0.734336,0.714183,0.803056
0.617896,0.734285,0.714112,0.802976
0.617834,0.734233,0.71404,0.802896
0.617772,0.734182,0.713969,0.802815
0.61771,0.734131,0.713898,0.802735
0.617648,0.73408,0.713826,0.802655
0.617587,0.734029,0.713755,0.802575
0.617525,0.733978,0.713683,0.802494
0.617463,0.733926,0.713612,0.802414
0.617401,0.733875,0.713541,0.802334
0.61734,0.733824,0.713469,0.802254
0.617278,0.733773,0.713398,0.802173
0.617216,0.733722,0.713327,0.802093
0.617154,0.733671,0.713255,0.802013
0.617093,0.73362,0.713184,0.801933
0.617031,0.733569,0.713113,0.801853
0.616969,0.733517,0.713041,0.801772
0.616908,0.733466,0.71297,0.801692
0.616846,0.733415,0.712899,0.801612
0.616784,0.733364,0.712827,0.801532
0.616723,0.733313,0.712756,0.801452
0.616661,0.733262,0.712685,0.801372
0.616599,0.733211,0.712614,0.801291
0.616538,0.73316,0.712542,0.801211
0.616476,0.733109,0.712471,0.801131
0.616414,0.733058,0.7124,0.801051
0.616353,0.733006,0.712329,0.800971
0.616291,0.732955,0.712257,0.800891
0.616229,0.732904,0.712186,0.800811
0.616168,0.732853,0.712115,0.800731
0.616106,0.732802,0.712044,0.800651
0.616045,0.732751,0.711973,0.800571
0.615983,0.7327,0.711901,0.80049
0.615921,0.732649,0.71183,0.80041
0.61586,0.732598,0.711759,0.80033
0.615798,0.732547,0.711688,0.80025
0.615737,0.732496,0.711617,0.80017
0.615675,0.732445,0.711545,0.80009
0.615613,0.732394,0.711474,0.80001
0.615552,0.732343,0.711403,0.79993
0.61549,0.732292,0.711332,0.79985
0.615429,0.732241,0.711261,0.79977
0.615367,0.73219,0.71119,0.79969
0.615306,0.732139,0.711119,0.79961
0.615244,0.732088,0.711048,0.79953
0.615183,0.732037,0.710976,0.79945
0.615121,0.731986,0.710905,0.799371
0.61506,0.731935,0.710834,0.799291
0.614998,0.731884,0.710763,0.799211
0.614937,0.731833,0.710692,0.799131
0.614875,0.731782,0.710621,0.799051
0.614814,0.731731,0.71055,0.798971
0.614752,0.73168,0.710479,0.798891
0.614691,0.731629,0.710408,0.798811
0.614629,0.731578,0.731647,0.798731
0.61426,0.731527,0.731574,0.798651
0.613892,0.731476,0.731501,0.798572
0.613524,0.731425,0.731427,0.798492
0.613156,0.731374,0.731354,0.798412
0.612788,0.731323,0.731281,0.798332
0.61242,0.731272,0.731208,0.798252
0.612053,0.731221,0.731135,0.798172
0.611685,0.73117,0.731062,0.798093
0.611318,0.731119,0.730989,0.798013
0.610952,0.731068,0.730916,0.797933
0.610891,0.731017,0.730843,0.797853
0.610829,0.730966,0.730769,0.797773
0.610768,0.730915,0.730696,0.797694
0.610707,0.730864,0.730623,0.797614
0.610646,0.730813,0.73055,0.797534
0.610585,0.730762,0.730477,0.797454
0.610524,0.730711,0.730404,0.797375
0.610463,0.73066,0.730331,0.797295
0.610402,0.73061,0.730258,0.797215
0.610341,0.730559,0.730185,0.797135
0.61028,0.730508,0.730112,0.797056
0.610219,0.730457,0.730039,0.796976
0.610158,0.730406,0.729966,0.796896
0.610097,0.730355,0.729893,0.796817
0.610036,0.730304,0.72982,0.796737
0.609975,0.730253,0.729747,0.796657
0.609914,0.730202,0.729674,0.796577
0.609853,0.730151,0.729601,0.796498
0.609792,0.730101,0.729528,0.796418
0.609731,0.73005,0.729455,0.796339
0.60967,0.729999,0.729382,0.796259
0.609609,0.729948,0.729309,0.796179
0.609548,0.729897,0.729236,0.7961
0.609487,0.729846,0.729163,0.79602
0.609426,0.729795,0.729091,0.79594
0.609365,0.729745,0.729018,0.795861
0.609304,0.729694,0.728945,0.795781
0.609243,0.729643,0.728872,0.795702
0.609182,0.729592,0.728799,0.795622
0.609121,0.729541,0.728726,0.795543
0.609061,0.72949,0.728653,0.795463
0.609,0.72944,0.72858,0.795383
0.608939,0.729389,0.728507,0.795304
0.608573,0.729338,0.728435,0.795224
0.608208,0.729287,0.728362,0.795145
0.607843,0.729236,0.728289,0.795065
0.607479,0.729185,0.728216,0.794986
0.607114,0.729135,0.728143,0.794906
0.60675,0.729084,0.72807,0.794827
0.606386,0.729033,0.727998,0.794747
0.606022,0.728982,0.727925,0.794668
0.605659,0.728931,0.727852,0.794588
0.605295,0.728881,0.727779,0.794509
0.604932,0.72883,0.727706,0.79443
0.604569,0.728779,0.727634,0.79435
0.604206,0.728728,0.727561,0.794271
0.603844,0.728677,0.727488,0.794191
0.603482,0.728627,0.727415,0.794112
0.60312,0.728576,0.727343,0.794032
0.602758,0.728525,0.72727,0.793953
0.602396,0.728474,0.727197,0.793874
0.602035,0.728424,0.727125,0.793794
0.601674,0.728373,0.727052,0.793715
0.601313,0.728322,0.726979,0.793635
0.600952,0.728271,0.726906,0.793556
0.600591,0.728221,0.726834,0.793477
0.600231,0.72817,0.726761,0.793397
0.599871,0.728119,0.726688,0.793318
0.599511,0.728068,0.726616,0.793239
0.599151,0.728018,0.726543,0.793159
0.598792,0.727967,0.72647,0.79308
0.598433,0.727916,0.726398,0.793001
0.598074,0.727865,0.726325,0.792921
0.597715,0.727815,0.726252,0.792842
0.597356,0.727764,0.72618,0.792763
0.596998,0.727713,0.726107,0.792684
0.59664,0.727663,0.726035,0.792604
0.596282,0.727612,0.725962,0.792525
0.595924,0.727561,0.725889,0.792446
0.595566,0.72751,0.725817,0.792367
