energy,productivity,fun,hunger
0.607908,0.718668,0.743556,0.706186
0.607847,0.718621,0.765786,0.706116
0.607483,0.718573,0.76571,0.706045
0.607118,0.718525,0.765633,0.705975
0.606754,0.718478,0.765557,0.705904
0.60639,0.71843,0.76548,0.705833
0.606026,0.718383,0.765404,0.705763
0.605663,0.718335,0.765327,0.705692
0.605299,0.718287,0.76525,0.705622
0.604936,0.71824,0.765174,0.705551
0.604573,0.718192,0.765097,0.705481
0.60421,0.718144,0.765021,0.70541
0.603848,0.718097,0.764944,0.70534
0.603486,0.718049,0.764868,0.705269
0.603124,0.718002,0.764791,0.705198
0.602762,0.717954,0.764715,0.705128
0.6024,0.717906,0.764639,0.705057
0.602039,0.717859,0.764562,0.704987
0.601678,0.717811,0.764486,0.704916
0.601317,0.717764,0.764409,0.704846
0.600956,0.717716,0.764333,0.704775
0.600595,0.717668,0.764256,0.704705
0.600235,0.717621,0.76418,0.704634
0.599875,0.717573,0.764103,0.704564
0.599515,0.717526,0.764027,0.704494
0.599155,0.717478,0.763951,0.704423
0.598796,0.717431,0.763874,0.704353
0.598437,0.717383,0.763798,0.704282
0.598077,0.717335,0.763721,0.704212
0.597719,0.717288,0.763645,0.704141
0.59736,0.71724,0.763569,0.704071
0.5973,0.717193,0.763492,0.704001
0.597241,0.717145,0.786318,0.70393
0.596882,0.717098,0.78624,0.70386
0.596524,0.71705,0.786161,0.703789
0.596166,0.717003,0.786083,0.703719
0.595809,0.716955,0.786004,0.703649
0.595451,0.716908,0.785925,0.703578
0.595094,0.71686,0.785847,0.703508
0.594737,0.716813,0.785768,0.703438
0.59438,0.716765,0.78569,0.703367
0.594023,0.716717,0.785611,0.703297
0.593667,0.71667,0.785533,0.703227
0.593311,0.716622,0.785454,0.703156
0.592955,0.716575,0.785375,0.703086
0.592599,0.716527,0.785297,0.703016
0.592244,0.71648,0.785218,0.702945
0.591888,0.716432,0.78514,0.702875
0.591533,0.716385,0.785061,0.702805
0.591178,0.716337,0.784983,0.702734
0.590824,0.71629,0.784904,0.702664
0.590765,0.716242,0.784826,0.702594
0.590706,0.716195,0.80829,0.702524
0.590351,0.716147,0.808209,0.702453
0.589997,0.7161,0.808128,0.702383
0.589643,0.716053,0.808047,0.702313
0.589289,0.716005,0.807966,0.702243
0.588936,0.715958,0.807886,0.702172
0.588582,0.71591,0.807805,0.702102
0.588229,0.715863,0.807724,0.702032
0.587876,0.715815,0.807643,0.701962
0.587524,0.715768,0.807563,0.701892
0.587171,0.71572,0.807482,0.701821
0.586819,0.715673,0.807401,0.701751
0.586467,0.715625,0.80732,0.701681
0.586115,0.715578,0.80724,0.701611
0.585763,0.715531,0.807159,0.701541
0.585412,0.715483,0.807078,0.701471
0.585061,0.715436,0.806997,0.7014
0.58471,0.715388,0.806917,0.70133
0.584359,0.715341,0.806836,0.70126
0.584008,0.715293,0.806755,0.70119
0.583658,0.715246,0.806675,0.70112
0.583308,0.715199,0.806594,0.70105
0.582958,0.715151,0.806513,0.70098
0.582608,0.715104,0.806433,0.70091
0.582259,0.715056,0.806352,0.70084
0.5822,0.715009,0.806271,0.700769
0.582142,0.714961,0.830377,0.700699
0.581793,0.714914,0.830294,0.700629
0.581444,0.714867,0.83021,0.700559
0.581095,0.714819,0.830127,0.700489
0.580746,0.714772,0.830044,0.700419
0.580398,0.714725,0.829961,0.700349
0.58005,0.714677,0.829878,0.700279
0.579702,0.71463,0.829795,0.700209
0.579354,0.714582,0.829712,0.700139
0.579006,0.714535,0.82963,0.700069
0.578659,0.714488,0.829547,0.699999
0.578312,0.71444,0.829464,0.699929
0.577965,0.714393,0.829381,0.699859
0.577618,0.714346,0.829298,0.699789
0.577272,0.714298,0.829215,0.699719
0.576925,0.714251,0.829132,0.699649
0.576579,0.714203,0.829049,0.699579
0.576233,0.714156,0.828966,0.699509
0.575887,0.714109,0.828883,0.699439
0.575542,0.714061,0.8288,0.699369
0.575197,0.714014,0.828717,0.699299
0.574852,0.713967,0.828635,0.699229
0.574507,0.713919,0.828552,0.699159
0.574162,0.713872,0.828469,0.69909
0.573818,0.713825,0.828386,0.69902
0.573473,0.713777,0.828303,0.69895
0.573129,0.71373,0.82822,0.69888
0.572785,0.713683,0.828137,0.69881
0.572442,0.713636,0.828055,0.69874
0.572098,0.713588,0.827972,0.69867
0.571755,0.713541,0.827889,0.6986
0.571412,0.713494,0.827806,0.69853
0.571069,0.713446,0.827723,0.698461
0.570727,0.713399,0.827641,0.698391
0.570384,0.713352,0.827558,0.698321
0.570042,0.713304,0.827475,0.698251
0.5697,0.713257,0.827392,0.698181
0.569358,0.71321,0.82731,0.698111
0.569017,0.713163,0.827227,0.698042
0.568675,0.713115,0.827144,0.697972
0.568334,0.713068,0.827062,0.697902
0.567993,0.713021,0.826979,0.697832
0.567652,0.712973,0.826896,0.697762
0.567312,0.712926,0.826813,0.697693
0.566971,0.712879,0.826731,0.697623
0.566631,0.712832,0.826648,0.697553
0.566291,0.712784,0.826565,0.697483
0.565952,0.712737,0.826483,0.697414
0.565612,0.71269,0.8264,0.697344
0.565273,0.712643,0.826317,0.697274
0.564934,0.712595,0.826235,0.697204
0.564595,0.712548,0.826152,0.697135
0.564256,0.712501,0.82607,0.697065
0.563917,0.712454,0.825987,0.696995
0.563579,0.712406,0.825904,0.696926
0.563241,0.712359,0.825822,0.696856
0.562903,0.712312,0.825739,0.696786
0.562565,0.712265,0.825657,0.696717
0.562228,0.712218,0.825574,0.696647
0.56189,0.71217,0.825492,0.696577
0.561553,0.712123,0.825409,0.696508
0.561216,0.712076,0.825326,0.696438
0.56088,0.712029,0.825244,0.696368
0.560824,0.711981,0.825161,0.696299
0.560768,0.711934,0.849831,0.696229
0.560431,0.711887,0.849746,0.696159
0.560095,0.71184,0.849661,0.69609
0.559759,0.711793,0.849576,0.69602
0.559423,0.711745,0.849491,0.695951
0.559087,0.711698,0.849406,0.695881
0.558752,0.711651,0.849321,0.695811
0.558417,0.711604,0.849237,0.695742
0.558082,0.711557,0.849152,0.695672
0.557747,0.71151,0.849067,0.695603
0.557412,0.711462,0.848982,0.695533
0.557078,0.711415,0.848897,0.695464
0.556744,0.711368,0.848812,0.695394
0.55641,0.711321,0.848727,0.695324
0.556076,0.711274,0.848642,0.695255
0.555742,0.711227,0.848557,0.695185
0.555409,0.711179,0.848473,0.695116
0.555076,0.711132,0.848388,0.695046
0.554743,0.711085,0.848303,0.694977
0.55441,0.711038,0.848218,0.694907
0.554077,0.710991,0.848133,0.694838
0.553745,0.710944,0.848048,0.694768
0.553412,0.710897,0.847964,0.694699
0.55308,0.710849,0.847879,0.694629
0.552749,0.710802,0.847794,0.69456
0.552417,0.710755,0.847709,0.694491
0.552086,0.710708,0.847624,0.694421
0.551754,0.710661,0.84754,0.694352
0.551423,0.710614,0.847455,0.694282
0.551093,0.710567,0.84737,0.694213
0.550762,0.71052,0.847285,0.694143
0.550431,0.710473,0.847201,0.694074
0.550101,0.710425,0.847116,0.694005
0.549771,0.710378,0.847031,0.693935
0.549441,0.710331,0.846947,0.693866
0.549112,0.710284,0.846862,0.693796
0.548782,0.710237,0.846777,0.693727
0.548453,0.71019,0.846692,0.693658
0.548124,0.710143,0.846608,0.693588
0.547795,0.710096,0.846523,0.693519
0.547467,0.710049,0.846439,0.69345
0.547138,0.710002,0.846354,0.69338
0.54681,0.709955,0.846269,0.693311
0.546482,0.709908,0.846185,0.693241
0.546154,0.70986,0.8461,0.693172
0.545826,0.709813,0.846015,0.693103
0.545499,0.709766,0.845931,0.693034
0.545171,0.709719,0.845846,0.692964
0.544844,0.709672,0.845762,0.692895
0.544518,0.709625,0.845677,0.692826
0.544191,0.709578,0.845592,0.692756
0.543864,0.709531,0.845508,0.692687
0.54381,0.709484,0.845423,0.692618
0.543756,0.709437,0.870699,0.692549
0.543429,0.70939,0.870612,0.692479
0.543103,0.709343,0.870525,0.69241
0.542777,0.709296,0.870438,0.692341
0.542452,0.709249,0.870351,0.692272
0.542126,0.709202,0.870264,0.692202
0.541801,0.709155,0.870177,0.692133
0.541476,0.709108,0.87009,0.692064
0.541151,0.709061,0.870003,0.691995
0.540827,0.709014,0.869916,0.691926
0.540502,0.708967,0.869829,0.691856
0.540178,0.70892,0.869742,0.691787
0.539854,0.708873,0.869655,0.691718
0.53953,0.708826,0.869568,0.691649
0.539206,0.708779,0.869481,0.69158
0.538883,0.708732,0.869394,0.69151
0.538559,0.708685,0.869307,0.691441
0.538236,0.708638,0.86922,0.691372
0.537913,0.708591,0.869133,0.691303
0.537591,0.708544,0.869046,0.691234
0.537268,0.708497,0.868959,0.691165
0.536946,0.70845,0.868872,0.691096
0.536624,0.708403,0.868785,0.691027
0.536302,0.708356,0.868699,0.690957
0.53598,0.708309,0.868612,0.690888
0.535658,0.708262,0.868525,0.690819
0.535337,0.708215,0.868438,0.69075
0.535016,0.708168,0.868351,0.690681
0.534695,0.708121,0.868264,0.690612
0.534374,0.708074,0.868177,0.690543
0.534053,0.708027,0.868091,0.690474
0.533733,0.70798,0.868004,0.690405
0.533413,0.707934,0.867917,0.690336
0.533093,0.707887,0.86783,0.690267
0.532773,0.70784,0.867743,0.690198
0.532453,0.707793,0.867657,0.690129
0.532134,0.707746,0.86757,0.69006
0.531815,0.707699,0.867483,0.689991
0.531496,0.707652,0.867396,0.689922
0.531177,0.707605,0.86731,0.689853
0.530858,0.707558,0.867223,0.689784
0.53054,0.707511,0.867136,0.689715
0.530221,0.707464,0.86705,0.689646
0.529903,0.707417,0.866963,0.689577
0.529585,0.707371,0.866876,0.689508
0.529268,0.707324,0.866789,0.689439
0.52895,0.707277,0.866703,0.68937
0.528633,0.70723,0.866616,0.689301
0.528315,0.707183,0.866529,0.689232
0.527999,0.707136,0.866443,0.689163
0.527682,0.707089,0.866356,0.689094
0.527365,0.707042,0.866269,0.689025
0.527049,0.706995,0.866183,0.688956
0.526733,0.706949,0.866096,0.688888
0.52668,0.706902,0.86601,0.688819
0.526627,0.706855,0.891901,0.68875
0.526311,0.706808,0.891812,0.688681
0.525996,0.706761,0.891722,0.688612
0.52568,0.706714,0.891633,0.688543
0.525365,0.706667,0.891544,0.688474
0.525049,0.706621,0.891455,0.688406
0.524734,0.706574,0.891366,0.688337
0.52442,0.706527,0.891277,0.688268
0.524105,0.70648,0.891187,0.688199
0.52379,0.706433,0.891098,0.68813
0.523476,0.706386,0.891009,0.688061
0.523162,0.70634,0.89092,0.687993
0.522848,0.706293,0.890831,0.687924
0.522535,0.706246,0.890742,0.687855
0.522221,0.706199,0.890653,0.687786
0.521908,0.706152,0.890564,0.687717
0.521595,0.706105,0.890475,0.687649
0.521282,0.706059,0.890386,0.68758
0.520969,0.706012,0.890297,0.687511
0.520656,0.705965,0.890208,0.687442
0.520344,0.705918,0.890119,0.687374
0.520032,0.705871,0.89003,0.687305
0.51972,0.705825,0.889941,0.687236
0.519408,0.705778,0.889852,0.687167
0.519097,0.705731,0.889763,0.687099
0.518785,0.705684,0.889674,0.68703
0.518474,0.705637,0.889585,0.686961
0.518163,0.705591,0.889496,0.686893
0.517852,0.705544,0.889407,0.686824
0.517541,0.705497,0.889318,0.686755
0.517231,0.70545,0.889229,0.686687
0.51692,0.705404,0.88914,0.686618
0.51661,0.705357,0.889051,0.686549
0.5163,0.70531,0.888962,0.686481
0.515991,0.705263,0.888873,0.686412
0.515939,0.705217,0.888784,0.686343
0.515887,0.70517,0.915356,0.686275
0.515578,0.705123,0.915265,0.686206
0.515269,0.705076,0.915173,0.686137
0.514959,0.70503,0.915082,0.686069
0.51465,0.704983,0.91499,0.686
0.514342,0.704936,0.914899,0.685932
0.514033,0.704889,0.914807,0.685863
0.513725,0.704843,0.914716,0.685794
0.513417,0.704796,0.914624,0.685726
0.513109,0.704749,0.914533,0.685657
0.512801,0.704702,0.914441,0.685589
0.512493,0.704656,0.91435,0.68552
0.512186,0.704609,0.914259,0.685452
0.511878,0.704562,0.914167,0.685383
0.511571,0.704516,0.914076,0.685314
0.511264,0.704469,0.913984,0.685246
0.510958,0.704422,0.913893,0.685177
0.510651,0.704375,0.913801,0.685109
0.510345,0.704329,0.91371,0.68504
0.510038,0.704282,0.913619,0.684972
0.509732,0.704235,0.913527,0.684903
0.509427,0.704189,0.913436,0.684835
0.509121,0.704142,0.913345,0.684766
0.508816,0.704095,0.913253,0.684698
0.50851,0.704049,0.913162,0.684629
0.508459,0.704002,0.913071,0.684561
0.508409,0.703955,0.940369,0.684493
0.508104,0.703909,0.940275,0.684424
0.507799,0.703862,0.940181,0.684356
0.507494,0.703815,0.940087,0.684287
0.50719,0.703769,0.939993,0.684219
0.506885,0.703722,0.939899,0.68415
0.506581,0.703675,0.939805,0.684082
0.506277,0.703629,0.939711,0.684014
0.505974,0.703582,0.939617,0.683945
0.50567,0.703535,0.939523,0.683877
0.505367,0.703489,0.939429,0.683808
0.505063,0.703442,0.939335,0.68374
0.50476,0.703395,0.939241,0.683672
0.504458,0.703349,0.939147,0.683603
0.504155,0.703302,0.939053,0.683535
0.503852,0.703256,0.938959,0.683467
0.503802,0.703209,0.938865,0.683398
0.503752,0.703162,0.966935,0.68333
0.503449,0.703116,0.966838,0.683262
0.503147,0.703069,0.966741,0.683193
0.502846,0.703023,0.966645,0.683125
0.502544,0.702976,0.966548,0.683057
0.502242,0.702929,0.966451,0.682988
0.501941,0.702883,0.966355,0.68292
0.50164,0.702836,0.966258,0.682852
0.501339,0.70279,0.966161,0.682783
0.501038,0.702743,0.966065,0.682715
0.500738,0.702696,0.965968,0.682647
0.500437,0.70265,0.965871,0.682579
0.500137,0.702603,0.965775,0.68251
0.499837,0.702557,0.965678,0.682442
0.499537,0.70251,0.965582,0.682374
0.499237,0.702463,0.965485,0.682306
0.498938,0.702417,0.965389,0.682237
0.498638,0.70237,0.965292,0.682169
0.498339,0.702324,0.965196,0.682101
0.49804,0.702277,0.965099,0.682033
0.497741,0.702231,0.965003,0.681964
0.497443,0.702184,0.964906,0.681896
0.497144,0.702137,0.96481,0.681828
0.496846,0.702091,0.964713,0.68176
0.496548,0.702044,0.964617,0.681692
0.49625,0.701998,0.96452,0.681624
0.495952,0.701951,0.964424,0.681555
0.495655,0.701905,0.964327,0.681487
0.495358,0.701858,0.964231,0.681419
0.49506,0.701812,0.964134,0.681351
0.494763,0.701765,0.964038,0.681283
0.494466,0.701719,0.963942,0.681215
0.49417,0.701672,0.963845,0.681147
0.493873,0.701626,0.963749,0.681078
0.493577,0.701579,0.963652,0.68101
0.493281,0.701533,0.963556,0.680942
0.492985,0.701486,0.96346,0.680874
0.492689,0.70144,0.963363,0.680806
0.492394,0.701393,0.963267,0.680738
0.492344,0.701347,0.963171,0.68067
0.492295,0.7013,0.991967,0.680602
0.492,0.701254,0.991867,0.680534
0.491705,0.701207,0.991768,0.680466
0.49141,0.701161,0.991669,0.680398
0.491115,0.701114,0.99157,0.68033
0.49082,0.701068,0.991471,0.680262
0.490526,0.701021,0.991372,0.680194
0.490231,0.700975,0.991272,0.680126
0.489937,0.700928,0.991173,0.680058
0.489643,0.700882,0.991074,0.67999
0.48935,0.700835,0.990975,0.679922
0.489056,0.700789,0.990876,0.679854
0.488763,0.700742,0.990777,0.679786
0.488469,0.700696,0.990678,0.679718
0.488176,0.700649,0.990579,0.67965
0.487883,0.700603,0.99048,0.679582
0.487591,0.700557,0.990381,0.679514
0.487298,0.70051,0.990282,0.679446
0.487006,0.700464,0.990183,0.679378
0.486714,0.700417,0.990084,0.67931
0.486422,0.700371,0.989985,0.679242
0.48613,0.700324,0.989886,0.679174
0.485838,0.700278,0.989787,0.679106
0.485547,0.700232,0.989688,0.679038
0.485255,0.700185,0.989589,0.67897
0.484964,0.700139,0.98949,0.678902
0.484673,0.700092,0.989391,0.678835
0.484383,0.700046,0.989292,0.678767
0.484092,0.699999,0.989193,0.678699
0.483801,0.699953,0.989094,0.678631
0.483511,0.699907,0.988995,0.678563
0.483221,0.69986,0.988896,0.678495
0.482931,0.699814,0.988797,0.678427
0.482642,0.699767,0.988698,0.678359
0.482352,0.699721,0.988599,0.678292
0.482063,0.699675,0.988501,0.678224
0.481773,0.699628,0.988402,0.678156
0.481484,0.699582,0.988303,0.678088
0.481195,0.699535,0.988204,0.67802
0.480907,0.699489,0.988105,0.677953
0.480618,0.699443,0.988006,0.677885
0.48033,0.699396,0.987908,0.677817
0.480042,0.69935,0.987809,0.677749
0.479754,0.699304,0.98771,0.677681
0.479466,0.699257,0.987611,0.677614
0.479178,0.699211,0.987513,0.677546
0.478891,0.699165,0.987414,0.677478
0.478603,0.699118,0.987315,0.67741
0.478316,0.699072,0.987216,0.677343
0.478029,0.699026,0.987118,0.677275
0.477743,0.698979,0.987019,0.677207
0.477456,0.698933,0.98692,0.677139
0.477169,0.698887,0.986822,0.677072
0.477122,0.69884,0.986723,0.677004
0.477074,0.698794,1,0.676936
0.476788,0.698748,0.9999,0.676869
0.476502,0.698701,0.9998,0.676801
0.476216,0.698655,0.9997,0.676733
0.47593,0.698609,0.9996,0.676666
0.475645,0.698562,0.9995,0.676598
0.475359,0.698516,0.9994,0.67653
0.475074,0.69847,0.9993,0.676463
0.474789,0.698423,0.9992,0.676395
0.474504,0.698377,0.9991,0.676327
0.47422,0.698331,0.999,0.67626
0.473935,0.698284,0.998901,0.676192
0.473651,0.698238,0.998801,0.676124
0.473367,0.698192,0.998701,0.676057
0.473083,0.698146,0.998601,0.675989
0.472799,0.698099,0.998501,0.675922
0.472515,0.698053,0.998401,0.675854
0.472232,0.698007,0.998301,0.675786
0.471948,0.69796,0.998202,0.675719
0.471665,0.697914,0.998102,0.675651
0.471382,0.697868,0.998002,0.675584
0.471099,0.697822,0.997902,0.675516
0.470817,0.697775,0.997802,0.675449
0.47077,0.697729,0.997703,0.675381
0.470723,0.697683,1,0.675314
0.47044,0.697637,0.9999,0.675246
0.470158,0.69759,0.9998,0.675178
0.469876,0.697544,0.9997,0.675111
0.469594,0.697498,0.9996,0.675043
0.469312,0.697452,0.9995,0.674976
0.469031,0.697405,0.9994,0.674908
0.468749,0.697359,0.9993,0.674841
0.468468,0.697313,0.9992,0.674773
0.468187,0.697267,0.9991,0.674706
0.467906,0.69722,0.999,0.674639
0.467859,0.697174,0.998901,0.674571
0.467812,0.697128,1,0.674504
0.467532,0.697082,0.9999,0.674436
0.467251,0.697036,0.9998,0.674369
0.466971,0.696989,0.9997,0.674301
0.466691,0.696943,0.9996,0.674234
0.466411,0.696897,0.9995,0.674166
0.466131,0.696851,0.9994,0.674099
0.465851,0.696805,0.9993,0.674032
0.465572,0.696758,0.9992,0.673964
0.465293,0.696712,0.9991,0.673897
0.465013,0.696666,0.999,0.673829
0.464734,0.69662,0.998901,0.673762
0.464456,0.696574,0.998801,0.673695
0.464177,0.696527,0.998701,0.673627
0.463898,0.696481,0.998601,0.67356
0.46362,0.696435,0.998501,0.673493
0.463342,0.696389,0.998401,0.673425
0.463064,0.696343,0.998301,0.673358
0.462786,0.696297,0.998202,0.673291
0.462509,0.69625,0.998102,0.673223
0.462231,0.696204,0.998002,0.673156
0.461954,0.696158,0.997902,0.673089
0.461677,0.696112,0.997802,0.673021
0.4614,0.696066,0.997703,0.672954
0.461353,0.69602,0.997603,0.672887
0.461307,0.695973,1,0.672819
0.461031,0.695927,0.9999,0.672752
0.460754,0.695881,0.9998,0.672685
0.460478,0.695835,0.9997,0.672618
0.460201,0.695789,0.9996,0.67255
0.459925,0.695743,0.9995,0.672483
0.459649,0.695697,0.9994,0.672416
0.459373,0.695651,0.9993,0.672349
0.459098,0.695604,0.9992,0.672281
0.458822,0.695558,0.9991,0.672214
0.458547,0.695512,0.999,0.672147
0.458272,0.695466,0.998901,0.67208
0.457997,0.69542,0.998801,0.672012
0.457722,0.695374,0.998701,0.671945
0.457448,0.695328,0.998601,0.671878
0.457173,0.695282,0.998501,0.671811
0.456899,0.695236,0.998401,0.671744
0.456625,0.69519,0.998301,0.671677
0.456351,0.695143,0.998202,0.671609
0.456077,0.695097,0.998102,0.671542
0.455804,0.695051,0.998002,0.671475
0.45553,0.695005,0.997902,0.671408
0.455257,0.694959,0.997802,0.671341
0.454984,0.694913,0.997703,0.671274
0.454711,0.694867,0.997603,0.671206
0.454438,0.694821,0.997503,0.671139
0.454165,0.694775,0.997403,0.671072
0.453893,0.694729,0.997304,0.671005
0.45362,0.694683,0.997204,0.670938
0.453348,0.694637,0.997104,0.670871
0.453076,0.694591,0.997004,0.670804
0.452805,0.694545,0.996905,0.670737
0.452533,0.694499,0.996805,0.67067
0.452261,0.694452,0.996705,0.670603
0.45199,0.694406,0.996606,0.670536
0.451719,0.69436,0.996506,0.670469
0.451448,0.694314,0.996406,0.670401
0.451177,0.694268,0.996307,0.670334
0.450906,0.694222,0.996207,0.670267
0.450636,0.694176,0.996107,0.6702
0.450365,0.69413,0.996008,0.670133
0.45032,0.694084,0.995908,0.670066
0.450275,0.694038,1,0.669999
0.450005,0.693992,0.9999,0.669932
0.449735,0.693946,0.9998,0.669865
0.449465,0.6939,0.9997,0.669798
0.449196,0.693854,0.9996,0.669731
0.448926,0.693808,0.9995,0.669664
0.448657,0.693762,0.9994,0.669597
0.448388,0.693716,0.9993,0.66953
0.448119,0.69367,0.9992,0.669464
0.44785,0.693624,0.9991,0.669397
0.447581,0.693578,0.999,0.66933
0.447313,0.693532,0.998901,0.669263
0.447044,0.693486,0.998801,0.669196
0.446776,0.69344,0.998701,0.669129
0.446508,0.693394,0.998601,0.669062
0.44624,0.693348,0.998501,0.668995
0.445972,0.693302,0.998401,0.668928
0.445705,0.693256,0.998301,0.668861
0.445438,0.69321,0.998202,0.668794
0.44517,0.693165,0.998102,0.668727
0.444903,0.693119,0.998002,0.668661
0.444636,0.693073,0.997902,0.668594
0.44437,0.693027,0.997802,0.668527
0.444103,0.692981,0.997703,0.66846
0.443836,0.692935,0.997603,0.668393
0.44357,0.692889,0.997503,0.668326
0.443304,0.692843,0.997403,0.66826
0.443038,0.692797,0.997304,0.668193
0.442772,0.692751,0.997204,0.668126
0.442507,0.692705,0.997104,0.668059
0.442241,0.692659,0.997004,0.667992
0.441976,0.692613,0.996905,0.667925
0.441711,0.692567,0.996805,0.667859
0.441446,0.692521,0.996705,0.667792
0.441181,0.692476,0.996606,0.667725
0.440916,0.69243,0.996506,0.667658
0.440652,0.692384,0.996406,0.667592
0.440387,0.692338,0.996307,0.667525
0.440123,0.692292,0.996207,0.667458
