energy,productivity,fun,hunger
0.872612,0.734651,0.844364,0.70264
0.872524,0.734601,0.869608,0.70257
0.872001,0.734552,0.869521,0.7025
0.871478,0.734502,0.869434,0.70243
0.870955,0.734453,0.869347,0.702359
0.870432,0.734403,0.86926,0.702289
0.86991,0.734354,0.869173,0.702219
0.869388,0.734305,0.869087,0.702149
0.868867,0.734255,0.869,0.702078
0.868345,0.734206,0.868913,0.702008
0.867824,0.734156,0.868826,0.701938
0.867304,0.734107,0.868739,0.701868
0.866783,0.734057,0.868652,0.701798
0.866263,0.734008,0.868565,0.701728
0.865744,0.733959,0.868478,0.701657
0.865224,0.733909,0.868392,0.701587
0.864705,0.73386,0.868305,0.701517
0.864186,0.73381,0.868218,0.701447
0.863668,0.733761,0.868131,0.701377
0.86315,0.733712,0.868044,0.701307
0.862632,0.733662,0.867957,0.701236
0.862114,0.733613,0.867871,0.701166
0.861597,0.733563,0.867784,0.701096
0.86108,0.733514,0.867697,0.701026
0.860564,0.733465,0.86761,0.700956
0.860047,0.733415,0.867524,0.700886
0.859531,0.733366,0.867437,0.700816
0.859016,0.733317,0.86735,0.700746
0.8585,0.733267,0.867263,0.700676
0.857985,0.733218,0.867177,0.700606
0.85747,0.733168,0.86709,0.700536
0.856956,0.733119,0.867003,0.700465
0.856442,0.73307,0.866916,0.700395
0.855928,0.73302,0.86683,0.700325
0.855415,0.732971,0.866743,0.700255
0.854901,0.732922,0.866656,0.700185
0.854388,0.732872,0.86657,0.700115
0.853876,0.732823,0.866483,0.700045
0.853364,0.732774,0.866396,0.699975
0.852852,0.732724,0.86631,0.699905
0.85234,0.732675,0.866223,0.699835
0.851829,0.732626,0.866137,0.699765
0.851318,0.732576,0.86605,0.699695
0.850807,0.732527,0.865963,0.699625
0.850296,0.732478,0.865877,0.699555
0.849786,0.732428,0.86579,0.699485
0.849276,0.732379,0.865704,0.699416
0.848767,0.73233,0.865617,0.699346
0.848258,0.732281,0.86553,0.699276
0.847749,0.732231,0.865444,0.699206
0.847664,0.732182,0.865357,0.699136
0.847579,0.732133,0.891229,0.699066
0.847071,0.732083,0.89114,0.698996
0.846562,0.732034,0.891051,0.698926
0.846055,0.731985,0.890962,0.698856
0.845547,0.731936,0.890872,0.698786
0.84504,0.731886,0.890783,0.698716
0.844533,0.731837,0.890694,0.698647
0.844026,0.731788,0.890605,0.698577
0.84352,0.731739,0.890516,0.698507
0.843014,0.731689,0.890427,0.698437
0.842508,0.73164,0.890338,0.698367
0.842002,0.731591,0.890249,0.698297
0.841497,0.731541,0.89016,0.698227
0.840992,0.731492,0.890071,0.698158
0.840488,0.731443,0.889982,0.698088
0.839984,0.731394,0.889893,0.698018
0.83948,0.731345,0.889804,0.697948
0.838976,0.731295,0.889715,0.697878
0.838473,0.731246,0.889626,0.697809
0.83797,0.731197,0.889537,0.697739
0.837467,0.731148,0.889448,0.697669
0.836964,0.731098,0.889359,0.697599
0.836462,0.731049,0.88927,0.69753
0.83596,0.731,0.889181,0.69746
0.835459,0.730951,0.889092,0.69739
0.834958,0.730902,0.889004,0.69732
0.834457,0.730852,0.888915,0.697251
0.833956,0.730803,0.888826,0.697181
0.833456,0.730754,0.888737,0.697111
0.832956,0.730705,0.888648,0.697041
0.832872,0.730656,0.888559,0.696972
0.832789,0.730606,0.915124,0.696902
0.83229,0.730557,0.915033,0.696832
0.83179,0.730508,0.914941,0.696763
0.831291,0.730459,0.91485,0.696693
0.830792,0.73041,0.914758,0.696623
0.830294,0.73036,0.914667,0.696554
0.829796,0.730311,0.914575,0.696484
0.829298,0.730262,0.914484,0.696414
0.8288,0.730213,0.914392,0.696345
0.828303,0.730164,0.914301,0.696275
0.827806,0.730115,0.91421,0.696205
0.82731,0.730066,0.914118,0.696136
0.826813,0.730016,0.914027,0.696066
0.826317,0.729967,0.913935,0.695997
0.826235,0.729918,0.913844,0.695927
0.826152,0.729869,0.941165,0.695857
0.825656,0.72982,0.941071,0.695788
0.825161,0.729771,0.940977,0.695718
0.824666,0.729722,0.940883,0.695649
0.824171,0.729672,0.940789,0.695579
0.823677,0.729623,0.940695,0.69551
0.823183,0.729574,0.940601,0.69544
0.822689,0.729525,0.940507,0.69537
0.822195,0.729476,0.940413,0.695301
0.821702,0.729427,0.940318,0.695231
0.821209,0.729378,0.940224,0.695162
0.820716,0.729329,0.94013,0.695092
0.820224,0.72928,0.940036,0.695023
0.819732,0.729231,0.939942,0.694953
0.81924,0.729181,0.939848,0.694884
0.819158,0.729132,0.939754,0.694814
0.819076,0.729083,0.96785,0.694745
0.818585,0.729034,0.967753,0.694675
0.818094,0.728985,0.967657,0.694606
0.817603,0.728936,0.96756,0.694536
0.817112,0.728887,0.967463,0.694467
0.816622,0.728838,0.967366,0.694398
0.816132,0.728789,0.96727,0.694328
0.815642,0.72874,0.967173,0.694259
0.815153,0.728691,0.967076,0.694189
0.814664,0.728642,0.96698,0.69412
0.814175,0.728593,0.966883,0.69405
0.813687,0.728544,0.966786,0.693981
0.813199,0.728494,0.966689,0.693912
0.812711,0.728445,0.966593,0.693842
0.812223,0.728396,0.966496,0.693773
0.811736,0.728347,0.9664,0.693703
0.811249,0.728298,0.966303,0.693634
0.810762,0.728249,0.966206,0.693565
0.810276,0.7282,0.96611,0.693495
0.80979,0.728151,0.966013,0.693426
0.809304,0.728102,0.965916,0.693357
0.808818,0.728053,0.96582,0.693287
0.808333,0.728004,0.965723,0.693218
0.807848,0.727955,0.965627,0.693149
0.807363,0.727906,0.96553,0.693079
0.806879,0.727857,0.965434,0.69301
0.806395,0.727808,0.965337,0.692941
0.805911,0.727759,0.96524,0.692871
0.805428,0.72771,0.965144,0.692802
0.804944,0.727661,0.965047,0.692733
0.804864,0.727612,0.964951,0.692664
0.804783,0.727563,0.9938,0.692594
0.804301,0.727514,0.993701,0.692525
0.803818,0.727465,0.993601,0.692456
0.803336,0.727416,0.993502,0.692387
0.802854,0.727367,0.993403,0.692317
0.802372,0.727318,0.993303,0.692248
0.801891,0.727269,0.993204,0.692179
0.80141,0.727221,0.993105,0.69211
0.800929,0.727172,0.993005,0.692041
0.800448,0.727123,0.992906,0.691971
0.799968,0.727074,0.992807,0.691902
0.799488,0.727025,0.992707,0.691833
0.799009,0.726976,0.992608,0.691764
0.798529,0.726927,0.992509,0.691695
0.79805,0.726878,0.99241,0.691625
0.797571,0.726829,0.99231,0.691556
0.797093,0.72678,0.992211,0.691487
0.796615,0.726731,0.992112,0.691418
0.796137,0.726682,0.992013,0.691349
0.795659,0.726633,0.991914,0.69128
0.795182,0.726584,0.991814,0.691211
0.794705,0.726535,0.991715,0.691141
0.794228,0.726487,0.991616,0.691072
0.793751,0.726438,0.991517,0.691003
0.793275,0.726389,0.991418,0.690934
0.792799,0.72634,0.991319,0.690865
0.792324,0.726291,0.991219,0.690796
0.791848,0.726242,0.99112,0.690727
0.791769,0.726193,0.991021,0.690658
0.79169,0.726144,1,0.690589
0.791215,0.726095,0.9999,0.69052
0.79074,0.726047,0.9998,0.690451
0.790266,0.725998,0.9997,0.690382
0.789792,0.725949,0.9996,0.690312
0.789318,0.7259,0.9995,0.690243
0.788844,0.725851,0.9994,0.690174
0.788371,0.725802,0.9993,0.690105
0.787898,0.725753,0.9992,0.690036
0.787425,0.725704,0.9991,0.689967
0.787347,0.725656,0.999,0.689898
0.787268,0.725607,1,0.689829
0.786795,0.725558,0.9999,0.68976
0.786323,0.725509,0.9998,0.689691
0.785852,0.72546,0.9997,0.689622
0.78538,0.725411,0.9996,0.689554
0.784909,0.725363,0.9995,0.689485
0.784438,0.725314,0.9994,0.689416
0.783967,0.725265,0.9993,0.689347
0.783497,0.725216,0.9992,0.689278
0.783027,0.725167,0.9991,0.689209
0.782557,0.725118,0.999,0.68914
0.782088,0.72507,0.998901,0.689071
0.781619,0.725021,0.998801,0.689002
0.78115,0.724972,0.998701,0.688933
0.780681,0.724923,0.998601,0.688864
0.780213,0.724874,0.998501,0.688795
0.779745,0.724826,0.998401,0.688727
0.779277,0.724777,0.998301,0.688658
0.778809,0.724728,0.998202,0.688589
0.778342,0.724679,0.998102,0.68852
0.777875,0.72463,0.998002,0.688451
0.777408,0.724582,0.997902,0.688382
0.776942,0.724533,0.997802,0.688313
0.776476,0.724484,0.997703,0.688245
0.77601,0.724435,0.997603,0.688176
0.775544,0.724387,0.997503,0.688107
0.775079,0.724338,0.997403,0.688038
0.774614,0.724289,0.997304,0.687969
0.774149,0.72424,0.997204,0.6879
0.773685,0.724192,0.997104,0.687832
0.773221,0.724143,0.997004,0.687763
0.772757,0.724094,0.996905,0.687694
0.772293,0.724045,0.996805,0.687625
0.77183,0.723997,0.996705,0.687557
0.771367,0.723948,0.996606,0.687488
0.770904,0.723899,0.996506,0.687419
0.770442,0.72385,0.996406,0.68735
0.769979,0.723802,0.996307,0.687282
0.769517,0.723753,0.996207,0.687213
0.769056,0.723704,0.996107,0.687144
0.768594,0.723655,0.996008,0.687075
0.768133,0.723607,0.995908,0.687007
0.767672,0.723558,0.995809,0.686938
0.767212,0.723509,0.995709,0.686869
0.766751,0.723461,0.995609,0.686801
0.766291,0.723412,0.99551,0.686732
0.765832,0.723363,0.99541,0.686663
0.765372,0.723315,0.995311,0.686595
0.764913,0.723266,0.995211,0.686526
0.764454,0.723217,0.995112,0.686457
0.763996,0.723168,0.995012,0.686389
0.763537,0.72312,0.994913,0.68632
0.763079,0.723071,0.994813,0.686251
0.762621,0.723022,0.994714,0.686183
0.762164,0.722974,0.994614,0.686114
0.761707,0.722925,0.994515,0.686046
0.76163,0.722876,0.994415,0.685977
0.761554,0.722828,1,0.685908
0.761097,0.722779,0.9999,0.68584
0.760641,0.72273,0.9998,0.685771
0.760184,0.722682,0.9997,0.685703
0.759728,0.722633,0.9996,0.685634
0.759272,0.722584,0.9995,0.685565
0.758817,0.722536,0.9994,0.685497
0.758362,0.722487,0.9993,0.685428
0.757907,0.722439,0.9992,0.68536
0.757452,0.72239,0.9991,0.685291
0.756998,0.722341,0.999,0.685223
0.756543,0.722293,0.998901,0.685154
0.756089,0.722244,0.998801,0.685086
0.755636,0.722195,0.998701,0.685017
0.755183,0.722147,0.998601,0.684949
0.754729,0.722098,0.998501,0.68488
0.754277,0.72205,0.998401,0.684812
0.753824,0.722001,0.998301,0.684743
0.753372,0.721952,0.998202,0.684675
0.75292,0.721904,0.998102,0.684606
0.752468,0.721855,0.998002,0.684538
0.752017,0.721807,0.997902,0.684469
0.751566,0.721758,0.997802,0.684401
0.751115,0.721709,0.997703,0.684333
0.750664,0.721661,0.997603,0.684264
0.750214,0.721612,0.997503,0.684196
0.749764,0.721564,0.997403,0.684127
0.749314,0.721515,0.997304,0.684059
0.748864,0.721467,0.997204,0.68399
0.748415,0.721418,0.997104,0.683922
0.747966,0.721369,0.997004,0.683854
0.747517,0.721321,0.996905,0.683785
0.747069,0.721272,0.996805,0.683717
0.74662,0.721224,0.996705,0.683648
0.746173,0.721175,0.996606,0.68358
0.745725,0.721127,0.996506,0.683512
0.745277,0.721078,0.996406,0.683443
0.74483,0.72103,0.996307,0.683375
0.744384,0.720981,0.996207,0.683307
0.744309,0.720932,0.996107,0.683238
0.744235,0.720884,1,0.68317
0.743788,0.720835,0.9999,0.683102
0.743342,0.720787,0.9998,0.683033
0.742896,0.720738,0.9997,0.682965
0.74245,0.72069,0.9996,0.682897
0.742005,0.720641,0.9995,0.682829
0.74156,0.720593,0.9994,0.68276
0.741115,0.720544,0.9993,0.682692
0.74067,0.720496,0.9992,0.682624
0.740226,0.720447,0.9991,0.682555
0.739782,0.720399,0.999,0.682487
0.739338,0.72035,0.998901,0.682419
0.738894,0.720302,0.998801,0.682351
0.738451,0.720253,0.998701,0.682282
0.738008,0.720205,0.998601,0.682214
0.737565,0.720156,0.998501,0.682146
0.737123,0.720108,0.998401,0.682078
0.73668,0.720059,0.998301,0.68201
0.736238,0.720011,0.998202,0.681941
0.735797,0.719962,0.998102,0.681873
0.735355,0.719914,0.998002,0.681805
0.734914,0.719866,0.997902,0.681737
0.734473,0.719817,0.997802,0.681669
0.734033,0.719769,0.997703,0.681601
0.733592,0.71972,0.997603,0.681532
0.733152,0.719672,0.997503,0.681464
0.732712,0.719623,0.997403,0.681396
0.732273,0.719575,0.997304,0.681328
0.731833,0.719526,0.997204,0.68126
0.731394,0.719478,0.997104,0.681192
0.731321,0.719429,0.997004,0.681124
0.731248,0.719381,1,0.681055
0.730809,0.719333,0.9999,0.680987
0.730371,0.719284,0.9998,0.680919
0.729933,0.719236,0.9997,0.680851
0.729495,0.719187,0.9996,0.680783
0.729057,0.719139,0.9995,0.680715
0.72862,0.719091,0.9994,0.680647
0.728182,0.719042,0.9993,0.680579
0.727746,0.718994,0.9992,0.680511
0.727309,0.718945,0.9991,0.680443
0.726873,0.718897,0.999,0.680375
0.726437,0.718849,0.998901,0.680307
0.726001,0.7188,0.998801,0.680239
0.725565,0.718752,0.998701,0.680171
0.72513,0.718703,0.998601,0.680103
0.724695,0.718655,0.998501,0.680035
0.72426,0.718607,0.998401,0.679967
0.723826,0.718558,0.998301,0.679899
0.723391,0.71851,0.998202,0.679831
0.722957,0.718461,0.998102,0.679763
0.722524,0.718413,0.998002,0.679695
0.72209,0.718365,0.997902,0.679627
0.721657,0.718316,0.997802,0.679559
0.721224,0.718268,0.997703,0.679491
0.720791,0.71822,0.997603,0.679423
0.720359,0.718171,0.997503,0.679355
0.719927,0.718123,0.997403,0.679287
0.719495,0.718075,0.997304,0.679219
0.719063,0.718026,0.997204,0.679151
0.718632,0.717978,0.997104,0.679083
0.7182,0.71793,0.997004,0.679015
0.71777,0.717881,0.996905,0.678947
0.717339,0.717833,0.996805,0.678879
0.716909,0.717785,0.996705,0.678812
0.716478,0.717736,0.996606,0.678744
0.716049,0.717688,0.996506,0.678676
0.715619,0.71764,0.996406,0.678608
0.715547,0.717591,0.996307,0.67854
0.715476,0.717543,1,0.678472
0.715047,0.717495,0.9999,0.678404
0.714618,0.717447,0.9998,0.678337
0.714189,0.717398,0.9997,0.678269
0.71376,0.71735,0.9996,0.678201
0.713332,0.717302,0.9995,0.678133
0.712904,0.717253,0.9994,0.678065
0.712477,0.717205,0.9993,0.677997
0.712049,0.717157,0.9992,0.67793
0.711622,0.717108,0.9991,0.677862
0.711195,0.71706,0.999,0.677794
0.710768,0.717012,0.998901,0.677726
0.710342,0.716964,0.998801,0.677658
0.709916,0.716915,0.998701,0.677591
0.70949,0.716867,0.998601,0.677523
0.709064,0.716819,0.998501,0.677455
0.708639,0.716771,0.998401,0.677387
0.708214,0.716722,0.998301,0.67732
0.707789,0.716674,0.998202,0.677252
0.707364,0.716626,0.998102,0.677184
0.70694,0.716578,0.998002,0.677117
0.706516,0.716529,0.997902,0.677049
0.706092,0.716481,0.997802,0.676981
0.705668,0.716433,0.997703,0.676913
0.705245,0.716385,0.997603,0.676846
0.704822,0.716336,0.997503,0.676778
0.704399,0.716288,0.997403,0.67671
0.703976,0.71624,0.997304,0.676643
0.703906,0.716192,0.997204,0.676575
0.703835,0.716144,1,0.676507
0.703413,0.716095,0.9999,0.67644
0.702991,0.716047,0.9998,0.676372
0.702569,0.715999,0.9997,0.676304
0.702148,0.715951,0.9996,0.676237
0.701726,0.715903,0.9995,0.676169
0.701305,0.715854,0.9994,0.676102
0.700885,0.715806,0.9993,0.676034
0.700464,0.715758,0.9992,0.675966
0.700044,0.71571,0.9991,0.675899
0.699624,0.715662,0.999,0.675831
0.699204,0.715613,0.998901,0.675764
0.698785,0.715565,0.998801,0.675696
0.698366,0.715517,0.998701,0.675628
0.697947,0.715469,0.998601,0.675561
0.697528,0.715421,0.998501,0.675493
0.697109,0.715373,0.998401,0.675426
0.696691,0.715325,0.998301,0.675358
0.696273,0.715276,0.998202,0.675291
0.695855,0.715228,0.998102,0.675223
0.695438,0.71518,0.998002,0.675156
0.695021,0.715132,0.997902,0.675088
0.694604,0.715084,0.997802,0.675021
0.694187,0.715036,0.997703,0.674953
0.693771,0.714987,0.997603,0.674886
0.693354,0.714939,0.997503,0.674818
0.692938,0.714891,0.997403,0.674751
0.692523,0.714843,0.997304,0.674683
0.692107,0.714795,0.997204,0.674616
0.691692,0.714747,0.997104,0.674548
0.691277,0.714699,0.997004,0.674481
0.690862,0.714651,0.996905,0.674413
0.690448,0.714603,0.996805,0.674346
0.690033,0.714554,0.996705,0.674278
0.689619,0.714506,0.996606,0.674211
0.689206,0.714458,0.996506,0.674144
0.688792,0.71441,0.996406,0.674076
0.688379,0.714362,0.996307,0.674009
0.687966,0.714314,0.996207,0.673941
0.687553,0.714266,0.996107,0.673874
0.687485,0.714218,0.996008,0.673807
0.687416,0.71417,1,0.673739
0.687003,0.714122,0.9999,0.673672
0.686591,0.714074,0.9998,0.673605
0.686179,0.714025,0.9997,0.673537
0.685768,0.713977,0.9996,0.67347
0.685356,0.713929,0.9995,0.673402
0.684945,0.713881,0.9994,0.673335
0.684534,0.713833,0.9993,0.673268
0.684123,0.713785,0.9992,0.6732
0.683713,0.713737,0.9991,0.673133
0.683303,0.713689,0.999,0.673066
0.682893,0.713641,0.998901,0.672998
0.682824,0.713593,0.998801,0.672931
0.682756,0.713545,1,0.672864
0.682347,0.713497,0.9999,0.672797
0.681937,0.713449,0.9998,0.672729
0.681528,0.713401,0.9997,0.672662
0.681119,0.713353,0.9996,0.672595
0.680711,0.713305,0.9995,0.672528
0.680302,0.713257,0.9994,0.67246
0.679894,0.713209,0.9993,0.672393
0.679486,0.713161,0.9992,0.672326
0.679078,0.713113,0.9991,0.672259
0.678671,0.713065,0.999,0.672191
0.678264,0.713017,0.998901,0.672124
0.677857,0.712969,0.998801,0.672057
0.67745,0.712921,0.998701,0.67199
0.677044,0.712873,0.998601,0.671923
0.676638,0.712825,0.998501,0.671855
0.676232,0.712777,0.998401,0.671788
0.675826,0.712729,0.998301,0.671721
0.675421,0.712681,0.998202,0.671654
0.675015,0.712633,0.998102,0.671587
0.67461,0.712585,0.998002,0.671519
0.674206,0.712537,0.997902,0.671452
0.673801,0.712489,0.997802,0.671385
0.673397,0.712441,0.997703,0.671318
0.672993,0.712393,0.997603,0.671251
0.672589,0.712345,0.997503,0.671184
0.672186,0.712297,0.997403,0.671117
0.671782,0.712249,0.997304,0.67105
0.671379,0.712201,0.997204,0.670982
0.670976,0.712153,0.997104,0.670915
0.670574,0.712105,0.997004,0.670848
0.670172,0.712057,0.996905,0.670781
0.66977,0.712009,0.996805,0.670714
0.669368,0.711962,0.996705,0.670647
0.668966,0.711914,0.996606,0.67058
0.668565,0.711866,0.996506,0.670513
0.668164,0.711818,0.996406,0.670446
0.668097,0.71177,0.996307,0.670379
0.66803,0.711722,1,0.670312
0.667629,0.711674,0.9999,0.670245
0.667229,0.711626,0.9998,0.670178
0.666828,0.711578,0.9997,0.670111
0.666428,0.71153,0.9996,0.670044
0.666029,0.711482,0.9995,0.669977
0.665629,0.711434,0.9994,0.66991
0.66523,0.711387,0.9993,0.669843
0.66483,0.711339,0.9992,0.669776
0.664432,0.711291,0.9991,0.669709
0.664033,0.711243,0.999,0.669642
0.663635,0.711195,0.998901,0.669575
0.663236,0.711147,0.998801,0.669508
0.662839,0.711099,0.998701,0.669441
0.662441,0.711051,0.998601,0.669374
0.662043,0.711004,0.998501,0.669307
0.661646,0.710956,0.998401,0.66924
0.661249,0.710908,0.998301,0.669173
0.660853,0.71086,0.998202,0.669106
0.660456,0.710812,0.998102,0.669039
0.66006,0.710764,0.998002,0.668972
0.659664,0.710716,0.997902,0.668905
0.659268,0.710669,0.997802,0.668839
0.658873,0.710621,0.997703,0.668772
0.658477,0.710573,0.997603,0.668705
0.658411,0.710525,0.997503,0.668638
0.658346,0.710477,1,0.668571
0.657951,0.710429,0.9999,0.668504
0.657556,0.710382,0.9998,0.668437
0.657161,0.710334,0.9997,0.668371
0.656767,0.710286,0.9996,0.668304
0.656373,0.710238,0.9995,0.668237
0.655979,0.71019,0.9994,0.66817
0.655586,0.710143,0.9993,0.668103
0.655192,0.710095,0.9992,0.668036
0.654799,0.710047,0.9991,0.66797
0.654407,0.709999,0.999,0.667903
0.654014,0.709951,0.998901,0.667836
0.653622,0.709904,0.998801,0.667769
0.653229,0.709856,0.998701,0.667702
0.652837,0.709808,0.998601,0.667636
0.652446,0.70976,0.998501,0.667569
0.652054,0.709712,0.998401,0.667502
0.651663,0.709665,0.998301,0.667435
0.651598,0.709617,0.998202,0.667369
0.651533,0.709569,1,0.667302
0.651142,0.709521,0.9999,0.667235
0.650751,0.709474,0.9998,0.667169
0.650361,0.709426,0.9997,0.667102
0.649971,0.709378,0.9996,0.667035
0.649581,0.70933,0.9995,0.666968
0.649191,0.709283,0.9994,0.666902
0.648802,0.709235,0.9993,0.666835
0.648412,0.709187,0.9992,0.666768
0.648023,0.709139,0.9991,0.666702
0.647635,0.709092,0.999,0.666635
0.647246,0.709044,0.998901,0.666568
0.646858,0.708996,0.998801,0.666502
0.64647,0.708948,0.998701,0.666435
0.646082,0.708901,0.998601,0.666368
0.645694,0.708853,0.998501,0.666302
0.645307,0.708805,0.998401,0.666235
0.64492,0.708757,0.998301,0.666168
0.644533,0.70871,0.998202,0.666102
0.644146,0.708662,0.998102,0.666035
0.643759,0.708614,0.998002,0.665969
0.643373,0.708567,0.997902,0.665902
0.642987,0.708519,0.997802,0.665835
0.642602,0.708471,0.997703,0.665769
0.642216,0.708424,0.997603,0.665702
0.641831,0.708376,0.997503,0.665636
0.641446,0.708328,0.997403,0.665569
0.641061,0.708281,0.997304,0.665503
0.640676,0.708233,0.997204,0.665436
0.640292,0.708185,0.997104,0.66537
0.639908,0.708137,0.997004,0.665303
0.639524,0.70809,0.996905,0.665236
0.63914,0.708042,0.996805,0.66517
0.638757,0.707994,0.996705,0.665103
0.638373,0.707947,0.996606,0.665037
0.63799,0.707899,0.996506,0.66497
0.637608,0.707852,0.996406,0.664904
0.637225,0.707804,0.996307,0.664837
0.636843,0.707756,0.996207,0.664771
0.636461,0.707709,0.996107,0.664704
0.636079,0.707661,0.996008,0.664638
0.635697,0.707613,0.995908,0.664571
0.635316,0.707566,0.995809,0.664505
0.635252,0.707518,0.995709,0.664439
0.635189,0.70747,1,0.664372
0.634808,0.707423,0.9999,0.664306
0.634427,0.707375,0.9998,0.664239
0.634046,0.707328,0.9997,0.664173
0.633666,0.70728,0.9996,0.664106
0.633286,0.707232,0.9995,0.66404
0.632906,0.707185,0.9994,0.663974
0.632526,0.707137,0.9993,0.663907
0.632147,0.707089,0.9992,0.663841
0.631767,0.707042,0.9991,0.663774
