energy,productivity,fun,hunger
0.831608,0.81351,0.721021,0.793948
0.831525,0.813474,0.720949,0.793868
0.831442,0.813438,0.720877,0.793789
0.831359,0.813401,0.720805,0.793709
0.831276,0.813365,0.720733,0.79363
0.831192,0.813328,0.720661,0.793551
0.831109,0.813292,0.720589,0.793471
0.831026,0.813256,0.720517,0.793392
0.830943,0.813219,0.720445,0.793313
0.83086,0.813183,0.720373,0.793233
0.830777,0.813147,0.7203,0.793154
0.830694,0.81311,0.720228,0.793075
0.830611,0.813074,0.720156,0.792995
0.830528,0.813038,0.720084,0.792916
0.830445,0.813002,0.720012,0.792837
0.830362,0.812965,0.71994,0.792757
0.830279,0.812929,0.719868,0.792678
0.830196,0.812893,0.719796,0.792599
0.830113,0.812856,0.719724,0.79252
0.83003,0.81282,0.719652,0.79244
0.829947,0.812784,0.719581,0.792361
0.829864,0.812747,0.719509,0.792282
0.829781,0.812711,0.719437,0.792203
0.829698,0.812675,0.719365,0.792123
0.829615,0.812638,0.719293,0.792044
0.829532,0.812602,0.719221,0.791965
0.829449,0.812566,0.719149,0.791886
0.829366,0.812529,0.719077,0.791807
0.829283,0.812493,0.719005,0.791728
0.8292,0.812457,0.718933,0.791648
0.829117,0.812421,0.718861,0.791569
0.829034,0.812384,0.718789,0.79149
0.828951,0.812348,0.718717,0.791411
0.828868,0.812312,0.718646,0.791332
0.828785,0.812275,0.718574,0.791253
0.828702,0.812239,0.718502,0.791173
0.82862,0.812203,0.71843,0.791094
0.828537,0.812167,0.718358,0.791015
0.828454,0.81213,0.718286,0.790936
0.828371,0.812094,0.718215,0.790857
0.828288,0.812058,0.718143,0.790778
0.828205,0.812021,0.718071,0.790699
0.828123,0.811985,0.717999,0.79062
0.82804,0.811949,0.717927,0.790541
0.827957,0.811913,0.717855,0.790462
0.827874,0.811876,0.717784,0.790383
0.827791,0.81184,0.717712,0.790304
0.827709,0.811804,0.71764,0.790225
0.827626,0.811767,0.717568,0.790146
0.827543,0.811731,0.717497,0.790067
0.82746,0.811695,0.717425,0.789988
0.827378,0.811659,0.717353,0.789909
0.827295,0.811622,0.717281,0.78983
0.827212,0.811586,0.71721,0.789751
0.827129,0.81155,0.717138,0.789672
0.827047,0.811514,0.717066,0.789593
0.826964,0.811477,0.716995,0.789514
0.826881,0.811441,0.716923,0.789435
0.826799,0.811405,0.716851,0.789356
0.826716,0.811369,0.716779,0.789277
0.826633,0.811332,0.716708,0.789198
0.826551,0.811296,0.716636,0.789119
0.826468,0.81126,0.716564,0.78904
0.826385,0.811224,0.716493,0.788961
0.826303,0.811187,0.716421,0.788882
0.82622,0.811151,0.71635,0.788803
0.826137,0.811115,0.716278,0.788725
0.826055,0.811079,0.716206,0.788646
0.825972,0.811042,0.716135,0.788567
0.82589,0.811006,0.716063,0.788488
0.825807,0.81097,0.715991,0.788409
0.825724,0.810934,0.71592,0.78833
0.825642,0.810898,0.715848,0.788251
0.825559,0.810861,0.715777,0.788173
0.825477,0.810825,0.715705,0.788094
0.825394,0.810789,0.715633,0.788015
0.825312,0.810753,0.715562,0.787936
0.825229,0.810716,0.71549,0.787857
0.825147,0.81068,0.715419,0.787779
0.825064,0.810644,0.715347,0.7877
0.824982,0.810608,0.715276,0.787621
0.824899,0.810572,0.715204,0.787542
0.824817,0.810535,0.715133,0.787463
0.824734,0.810499,0.715061,0.787385
0.824652,0.810463,0.71499,0.787306
0.824569,0.810427,0.714918,0.787227
0.824487,0.810391,0.714847,0.787149
0.824404,0.810354,0.714775,0.78707
0.824322,0.810318,0.714704,0.786991
0.824239,0.810282,0.714632,0.786912
0.824157,0.810246,0.714561,0.786834
0.824074,0.810209,0.714489,0.786755
0.823992,0.810173,0.714418,0.786676
0.82391,0.810137,0.714346,0.786598
0.823827,0.810101,0.714275,0.786519
0.823745,0.810065,0.714204,0.78644
0.823663,0.810029,0.714132,0.786362
0.82358,0.809992,0.714061,0.786283
0.823498,0.809956,0.713989,0.786204
0.823415,0.80992,0.713918,0.786126
0.823333,0.809884,0.713847,0.786047
0.823251,0.809848,0.713775,0.785969
0.823168,0.809811,0.713704,0.78589
0.823086,0.809775,0.713632,0.785811
0.823004,0.809739,0.713561,0.785733
0.822922,0.809703,0.71349,0.785654
0.822839,0.809667,0.713418,0.785576
0.822757,0.809631,0.713347,0.785497
0.822675,0.809594,0.713276,0.785419
0.822592,0.809558,0.713204,0.78534
0.82251,0.809522,0.713133,0.785262
0.822428,0.809486,0.713062,0.785183
0.822346,0.80945,0.71299,0.785105
0.822263,0.809414,0.712919,0.785026
0.822181,0.809377,0.712848,0.784948
0.822099,0.809341,0.712777,0.784869
0.822017,0.809305,0.712705,0.784791
0.821935,0.809269,0.712634,0.784712
0.821852,0.809233,0.712563,0.784634
0.82177,0.809197,0.712491,0.784555
0.821688,0.80916,0.71242,0.784477
0.821606,0.809124,0.712349,0.784398
0.821524,0.809088,0.712278,0.78432
0.821442,0.809052,0.712206,0.784241
0.821359,0.809016,0.712135,0.784163
0.821277,0.80898,0.712064,0.784084
0.821195,0.808944,0.711993,0.784006
0.821113,0.808907,0.711922,0.783928
0.821031,0.808871,0.71185,0.783849
0.820949,0.808835,0.711779,0.783771
0.820867,0.808799,0.711708,0.783693
0.820785,0.808763,0.711637,0.783614
0.820703,0.808727,0.711566,0.783536
0.82062,0.808691,0.711495,0.783457
0.820538,0.808654,0.711423,0.783379
0.820456,0.808618,0.711352,0.783301
0.820374,0.808582,0.711281,0.783222
0.820292,0.808546,0.71121,0.783144
0.82021,0.80851,0.711139,0.783066
0.820128,0.808474,0.711068,0.782987
0.820046,0.808438,0.710997,0.782909
0.819964,0.808402,0.710926,0.782831
0.819882,0.808366,0.710855,0.782753
0.8198,0.808329,0.710783,0.782674
0.819718,0.808293,0.710712,0.782596
0.819636,0.808257,0.710641,0.782518
0.819554,0.808221,0.71057,0.78244
0.819472,0.808185,0.710499,0.782361
0.81939,0.808149,0.710428,0.782283
0.819308,0.808113,0.710357,0.782205
0.819227,0.808077,0.710286,0.782127
0.819145,0.808041,0.710215,0.782048
0.819063,0.808004,0.710144,0.78197
0.818981,0.807968,0.710073,0.781892
0.818899,0.807932,0.710002,0.781814
0.818817,0.807896,0.709931,0.781736
0.818735,0.80786,0.70986,0.781657
0.818653,0.807824,0.709789,0.781579
0.818571,0.807788,0.709718,0.781501
0.81849,0.807752,0.709647,0.781423
0.818408,0.807716,0.709576,0.781345
0.818326,0.80768,0.709505,0.781267
0.818244,0.807644,0.709434,0.781189
0.818162,0.807607,0.709363,0.78111
0.81808,0.807571,0.709292,0.781032
0.817999,0.807535,0.709221,0.780954
0.817917,0.807499,0.70915,0.780876
0.817835,0.807463,0.70908,0.780798
0.817753,0.807427,0.709009,0.78072
0.817671,0.807391,0.708938,0.780642
0.81759,0.807355,0.708867,0.780564
0.817508,0.807319,0.708796,0.780486
0.817426,0.807283,0.708725,0.780408
0.817344,0.807247,0.708654,0.78033
0.817263,0.807211,0.708583,0.780252
0.817181,0.807175,0.708512,0.780174
0.817099,0.807139,0.708442,0.780096
0.817017,0.807102,0.708371,0.780018
0.816936,0.807066,0.7083,0.77994
0.816854,0.80703,0.708229,0.779862
0.816772,0.806994,0.708158,0.779784
0.816691,0.806958,0.708087,0.779706
0.816609,0.806922,0.708017,0.779628
0.816527,0.806886,0.707946,0.77955
0.816446,0.80685,0.707875,0.779472
0.816364,0.806814,0.707804,0.779394
0.816282,0.806778,0.707733,0.779316
0.816201,0.806742,0.707663,0.779238
0.816119,0.806706,0.707592,0.77916
0.816038,0.80667,0.707521,0.779082
0.815956,0.806634,0.70745,0.779004
0.815874,0.806598,0.70738,0.778926
0.815793,0.806562,0.707309,0.778848
0.815711,0.806526,0.707238,0.778771
0.81563,0.80649,0.707167,0.778693
0.815548,0.806454,0.707097,0.778615
0.815467,0.806418,0.707026,0.778537
0.815385,0.806382,0.706955,0.778459
0.815303,0.806346,0.706885,0.778381
0.815222,0.80631,0.706814,0.778303
0.81514,0.806274,0.706743,0.778226
0.815059,0.806238,0.706673,0.778148
0.814977,0.806201,0.706602,0.77807
0.814896,0.806165,0.706531,0.777992
0.814814,0.806129,0.706461,0.777914
0.814733,0.806093,0.70639,0.777837
0.814651,0.806057,0.706319,0.777759
0.81457,0.806021,0.706249,0.777681
0.814489,0.805985,0.706178,0.777603
0.814407,0.805949,0.706107,0.777525
0.814326,0.805913,0.706037,0.777448
0.814244,0.805877,0.705966,0.77737
0.814163,0.805841,0.705896,0.777292
0.814081,0.805805,0.705825,0.777214
0.814,0.805769,0.705754,0.777137
0.813919,0.805733,0.705684,0.777059
0.813837,0.805697,0.705613,0.776981
0.813756,0.805661,0.705543,0.776904
0.813674,0.805625,0.705472,0.776826
0.813593,0.805589,0.705402,0.776748
0.813512,0.805553,0.705331,0.776671
0.81343,0.805517,0.705261,0.776593
0.813349,0.805481,0.70519,0.776515
0.813268,0.805445,0.70512,0.776438
0.813186,0.805409,0.705049,0.77636
0.813105,0.805373,0.704979,0.776282
0.813024,0.805338,0.704908,0.776205
0.812942,0.805302,0.704838,0.776127
0.812861,0.805266,0.704767,0.776049
0.81278,0.80523,0.704697,0.775972
0.812699,0.805194,0.704626,0.775894
0.812617,0.805158,0.704556,0.775817
0.812536,0.805122,0.704485,0.775739
0.812455,0.805086,0.704415,0.775662
0.812373,0.80505,0.704344,0.775584
0.812292,0.805014,0.704274,0.775506
0.812211,0.804978,0.704203,0.775429
0.81213,0.804942,0.704133,0.775351
0.812049,0.804906,0.704063,0.775274
0.811967,0.80487,0.703992,0.775196
0.811886,0.804834,0.703922,0.775119
0.811805,0.804798,0.703851,0.775041
0.811724,0.804762,0.703781,0.774964
0.811643,0.804726,0.703711,0.774886
0.811561,0.80469,0.70364,0.774809
0.81148,0.804654,0.70357,0.774731
0.811399,0.804618,0.7035,0.774654
0.811318,0.804582,0.703429,0.774576
0.811237,0.804546,0.703359,0.774499
0.811156,0.80451,0.703289,0.774421
0.811075,0.804474,0.703218,0.774344
0.810994,0.804439,0.703148,0.774267
0.810912,0.804403,0.703078,0.774189
0.810831,0.804367,0.703007,0.774112
0.81075,0.804331,0.702937,0.774034
0.810669,0.804295,0.702867,0.773957
0.810588,0.804259,0.702796,0.773879
0.810507,0.804223,0.702726,0.773802
0.810426,0.804187,0.702656,0.773725
0.810345,0.804151,0.702586,0.773647
0.810264,0.804115,0.702515,0.77357
0.810183,0.804079,0.702445,0.773493
0.810102,0.804043,0.702375,0.773415
0.810021,0.804007,0.702305,0.773338
0.80994,0.803971,0.702234,0.773261
0.809859,0.803935,0.702164,0.773183
0.809778,0.8039,0.702094,0.773106
0.809697,0.803864,0.702024,0.773029
0.809616,0.803828,0.701954,0.772951
0.809535,0.803792,0.701883,0.772874
0.809454,0.803756,0.701813,0.772797
0.809373,0.80372,0.701743,0.772719
0.809292,0.803684,0.701673,0.772642
0.809211,0.803648,0.701603,0.772565
0.80913,0.803612,0.701532,0.772488
0.809049,0.803576,0.701462,0.77241
0.808969,0.803541,0.701392,0.772333
0.808888,0.803505,0.701322,0.772256
0.808807,0.803469,0.701252,0.772179
0.808726,0.803433,0.701182,0.772102
0.808645,0.803397,0.701112,0.772024
0.808564,0.803361,0.701042,0.771947
0.808483,0.803325,0.700971,0.77187
0.808402,0.803289,0.700901,0.771793
0.808322,0.803253,0.700831,0.771716
0.808241,0.803217,0.700761,0.771638
0.80816,0.803182,0.700691,0.771561
0.808079,0.803146,0.700621,0.771484
0.807998,0.80311,0.700551,0.771407
0.807917,0.803074,0.700481,0.77133
0.807837,0.803038,0.700411,0.771253
0.807756,0.803002,0.700341,0.771175
0.807675,0.802966,0.700271,0.771098
0.807594,0.80293,0.700201,0.771021
0.807514,0.802895,0.700131,0.770944
0.807433,0.802859,0.700061,0.770867
0.807352,0.802823,0.699991,0.77079
0.807271,0.802787,0.699921,0.770713
0.807191,0.802751,0.699851,0.770636
0.80711,0.802715,0.699781,0.770559
0.807029,0.802679,0.699711,0.770482
0.806949,0.802644,0.699641,0.770405
0.806868,0.802608,0.699571,0.770328
0.806787,0.802572,0.699501,0.770251
0.806706,0.802536,0.699431,0.770174
0.806626,0.8025,0.699361,0.770097
0.806545,0.802464,0.699291,0.77002
0.806464,0.802428,0.699221,0.769943
0.806384,0.802393,0.699151,0.769866
0.806303,0.802357,0.699081,0.769789
0.806223,0.802321,0.699011,0.769712
0.806142,0.802285,0.698941,0.769635
0.806061,0.802249,0.698872,0.769558
0.805981,0.802213,0.698802,0.769481
0.8059,0.802177,0.698732,0.769404
0.80582,0.802142,0.698662,0.769327
0.805739,0.802106,0.698592,0.76925
0.805658,0.80207,0.698522,0.769173
0.805578,0.802034,0.698452,0.769096
0.805497,0.801998,0.698382,0.769019
0.805417,0.801962,0.698313,0.768942
0.805336,0.801927,0.698243,0.768865
0.805256,0.801891,0.698173,0.768788
0.805175,0.801855,0.698103,0.768712
0.805095,0.801819,0.698033,0.768635
0.805014,0.801783,0.697964,0.768558
0.804934,0.801748,0.697894,0.768481
0.804853,0.801712,0.697824,0.768404
0.804773,0.801676,0.697754,0.768327
0.804692,0.80164,0.697684,0.76825
0.804612,0.801604,0.697615,0.768174
0.804531,0.801568,0.697545,0.768097
0.804451,0.801533,0.697475,0.76802
0.80437,0.801497,0.697405,0.767943
0.80429,0.801461,0.697336,0.767866
0.804209,0.801425,0.697266,0.76779
0.804129,0.801389,0.697196,0.767713
0.804049,0.801354,0.697126,0.767636
0.803968,0.801318,0.697057,0.767559
0.803888,0.801282,0.696987,0.767483
0.803807,0.801246,0.696917,0.767406
0.803727,0.80121,0.696848,0.767329
0.803647,0.801175,0.696778,0.767252
0.803566,0.801139,0.696708,0.767176
0.803486,0.801103,0.696639,0.767099
0.803406,0.801067,0.696569,0.767022
0.803325,0.801031,0.696499,0.766945
0.803245,0.800996,0.69643,0.766869
0.803165,0.80096,0.69636,0.766792
0.803084,0.800924,0.69629,0.766715
0.803004,0.800888,0.696221,0.766639
0.802924,0.800853,0.696151,0.766562
0.802843,0.800817,0.696081,0.766485
0.802763,0.800781,0.696012,0.766409
0.802683,0.800745,0.695942,0.766332
0.802603,0.800709,0.695873,0.766255
0.802522,0.800674,0.695803,0.766179
0.802442,0.800638,0.695734,0.766102
0.802362,0.800602,0.695664,0.766026
0.802282,0.800566,0.695594,0.765949
0.802201,0.800531,0.695525,0.765872
0.802121,0.800495,0.695455,0.765796
0.802041,0.800459,0.695386,0.765719
0.801961,0.800423,0.695316,0.765643
0.80188,0.800388,0.695247,0.765566
0.8018,0.800352,0.695177,0.76549
0.80172,0.800316,0.695108,0.765413
0.80164,0.80028,0.695038,0.765336
0.80156,0.800244,0.694969,0.76526
0.80148,0.800209,0.694899,0.765183
0.801399,0.800173,0.69483,0.765107
0.801319,0.800137,0.69476,0.76503
0.801239,0.800102,0.694691,0.764954
0.801159,0.800066,0.694621,0.764877
0.801079,0.80003,0.694552,0.764801
0.800999,0.799994,0.694482,0.764724
0.800919,0.799959,0.694413,0.764648
0.800839,0.799923,0.694343,0.764571
0.800759,0.799887,0.694274,0.764495
0.800678,0.799851,0.694205,0.764419
0.800598,0.799816,0.694135,0.764342
0.800518,0.79978,0.694066,0.764266
0.800438,0.799744,0.693996,0.764189
0.800358,0.799708,0.693927,0.764113
0.800278,0.799673,0.693857,0.764036
0.800198,0.799637,0.693788,0.76396
0.800118,0.799601,0.693719,0.763884
0.800038,0.799565,0.693649,0.763807
0.799958,0.79953,0.69358,0.763731
0.799878,0.799494,0.693511,0.763655
0.799798,0.799458,0.693441,0.763578
0.799718,0.799423,0.693372,0.763502
0.799638,0.799387,0.693303,0.763425
0.799558,0.799351,0.693233,0.763349
0.799478,0.799315,0.693164,0.763273
0.799398,0.79928,0.693095,0.763196
0.799318,0.799244,0.693025,0.76312
0.799238,0.799208,0.692956,0.763044
0.799159,0.799173,0.692887,0.762967
0.799079,0.799137,0.692817,0.762891
0.798999,0.799101,0.692748,0.762815
0.798919,0.799066,0.692679,0.762739
0.798839,0.79903,0.69261,0.762662
0.798759,0.798994,0.69254,0.762586
0.798679,0.798958,0.692471,0.76251
0.798599,0.798923,0.692402,0.762434
0.798519,0.798887,0.692333,0.762357
0.79844,0.798851,0.692263,0.762281
0.79836,0.798816,0.692194,0.762205
0.79828,0.79878,0.692125,0.762129
0.7982,0.798744,0.692056,0.762052
0.79812,0.798709,0.691987,0.761976
0.79804,0.798673,0.691917,0.7619
0.797961,0.798637,0.691848,0.761824
0.797881,0.798602,0.691779,0.761748
0.797801,0.798566,0.69171,0.761671
0.797721,0.79853,0.691641,0.761595
0.797642,0.798495,0.691571,0.761519
0.797562,0.798459,0.691502,0.761443
0.797482,0.798423,0.691433,0.761367
0.797402,0.798388,0.691364,0.761291
0.797323,0.798352,0.691295,0.761215
0.797243,0.798316,0.691226,0.761138
0.797163,0.798281,0.691157,0.761062
0.797083,0.798245,0.691087,0.760986
0.797004,0.798209,0.691018,0.76091
0.796924,0.798174,0.690949,0.760834
0.796844,0.798138,0.69088,0.760758
0.796765,0.798102,0.690811,0.760682
0.796685,0.798067,0.690742,0.760606
0.796605,0.798031,0.690673,0.76053
0.796526,0.797995,0.690604,0.760454
0.796446,0.79796,0.690535,0.760378
0.796366,0.797924,0.690466,0.760302
0.796287,0.797888,0.690397,0.760226
0.796207,0.797853,0.690328,0.76015
0.796127,0.797817,0.690259,0.760074
0.796048,0.797781,0.69019,0.759998
0.795968,0.797746,0.690121,0.759922
0.795889,0.79771,0.690052,0.759846
0.795809,0.797674,0.689983,0.75977
0.795729,0.797639,0.689914,0.759694
0.79565,0.797603,0.689845,0.759618
0.79557,0.797568,0.689776,0.759542
0.795491,0.797532,0.689707,0.759466
0.795411,0.797496,0.689638,0.75939
0.795332,0.797461,0.689569,0.759314
0.795252,0.797425,0.6895,0.759238
0.795173,0.797389,0.689431,0.759162
0.795093,0.797354,0.689362,0.759086
0.795014,0.797318,0.689293,0.75901
0.794934,0.797283,0.689224,0.758934
0.794855,0.797247,0.689155,0.758858
0.794775,0.797211,0.689086,0.758782
0.794696,0.797176,0.689017,0.758707
0.794616,0.79714,0.688948,0.758631
0.794537,0.797104,0.688879,0.758555
0.794457,0.797069,0.688811,0.758479
0.794378,0.797033,0.688742,0.758403
0.794298,0.796998,0.688673,0.758327
0.794219,0.796962,0.688604,0.758251
0.794139,0.796926,0.688535,0.758176
0.79406,0.796891,0.688466,0.7581
0.793981,0.796855,0.688397,0.758024
0.793901,0.79682,0.688328,0.757948
0.793822,0.796784,0.68826,0.757872
0.793742,0.796748,0.688191,0.757797
0.793663,0.796713,0.688122,0.757721
0.793584,0.796677,0.688053,0.757645
0.793504,0.796642,0.687984,0.757569
0.793425,0.796606,0.687916,0.757494
0.793346,0.79657,0.687847,0.757418
0.793266,0.796535,0.687778,0.757342
0.793187,0.796499,0.687709,0.757266
0.793108,0.796464,0.68764,0.757191
0.793028,0.796428,0.687572,0.757115
0.792949,0.796393,0.687503,0.757039
0.79287,0.796357,0.687434,0.756963
0.79279,0.796321,0.687365,0.756888
0.792711,0.796286,0.687297,0.756812
0.792632,0.79625,0.687228,0.756736
0.792553,0.796215,0.687159,0.756661
0.792473,0.796179,0.687091,0.756585
0.792394,0.796143,0.687022,0.756509
0.792315,0.796108,0.686953,0.756434
0.792236,0.796072,0.686884,0.756358
0.792156,0.796037,0.686816,0.756283
0.792077,0.796001,0.686747,0.756207
0.791998,0.795966,0.686678,0.756131
0.791919,0.79593,0.68661,0.756056
0.79184,0.795895,0.686541,0.75598
0.79176,0.795859,0.686472,0.755904
0.791681,0.795823,0.686404,0.755829
0.791602,0.795788,0.686335,0.755753
0.791523,0.795752,0.686267,0.755678
0.791444,0.795717,0.686198,0.755602
0.791365,0.795681,0.686129,0.755527
0.791286,0.795646,0.686061,0.755451
0.791206,0.79561,0.685992,0.755375
0.791127,0.795575,0.685923,0.7553
0.791048,0.795539,0.685855,0.755224
0.790969,0.795504,0.685786,0.755149
0.79089,0.795468,0.685718,0.755073
0.790811,0.795432,0.685649,0.754998
0.790732,0.795397,0.685581,0.754922
0.790653,0.795361,0.685512,0.754847
0.790574,0.795326,0.685443,0.754771
0.790495,0.79529,0.685375,0.754696
0.790416,0.795255,0.685306,0.75462
0.790337,0.795219,0.685238,0.754545
0.790257,0.795184,0.685169,0.75447
0.790178,0.795148,0.685101,0.754394
0.790099,0.795113,0.685032,0.754319
0.79002,0.795077,0.684964,0.754243
0.789941,0.795042,0.684895,0.754168
0.789862,0.795006,0.684827,0.754092
0.789783,0.794971,0.684758,0.754017
0.789704,0.794935,0.68469,0.753942
0.789625,0.7949,0.684621,0.753866
0.789547,0.794864,0.684553,0.753791
0.789468,0.794829,0.684484,0.753715
0.789389,0.794793,0.684416,0.75364
0.78931,0.794758,0.684348,0.753565
0.789231,0.794722,0.684279,0.753489
0.789152,0.794686,0.684211,0.753414
0.789073,0.794651,0.684142,0.753339
0.788994,0.794615,0.684074,0.753263
0.788915,0.79458,0.684005,0.753188
0.788836,0.794544,0.683937,0.753113
0.788757,0.794509,0.683869,0.753037
0.788678,0.794473,0.6838,0.752962
0.7886,0.794438,0.683732,0.752887
0.788521,0.794403,0.683664,0.752811
0.788442,0.794367,0.683595,0.752736
0.788363,0.794332,0.683527,0.752661
0.788284,0.794296,0.683458,0.752586
0.788205,0.794261,0.68339,0.75251
0.788127,0.794225,0.683322,0.752435
0.788048,0.79419,0.683253,0.75236
0.787969,0.794154,0.683185,0.752285
0.78789,0.794119,0.683117,0.752209
0.787811,0.794083,0.683048,0.752134
0.787733,0.794048,0.68298,0.752059
0.787654,0.794012,0.682912,0.751984
0.787575,0.793977,0.682844,0.751909
0.787496,0.793941,0.682775,0.751833
0.787418,0.793906,0.682707,0.751758
0.787339,0.79387,0.682639,0.751683
0.78726,0.793835,0.68257,0.751608
0.787181,0.793799,0.682502,0.751533
0.787103,0.793764,0.682434,0.751458
0.787024,0.793728,0.682366,0.751382
0.786945,0.793693,0.682297,0.751307
0.786867,0.793658,0.682229,0.751232
0.786788,0.793622,0.682161,0.751157
0.786709,0.793587,0.682093,0.751082
0.78663,0.793551,0.682025,0.751007
0.786552,0.793516,0.681956,0.750932
0.786473,0.79348,0.681888,0.750857
0.786395,0.793445,0.68182,0.750781
0.786316,0.793409,0.681752,0.750706
