energy,productivity,fun,hunger
0.676223,0.661534,0.582587,0.418981
0.676156,0.661496,0.582528,0.418939
0.67575,0.661459,0.58247,0.418897
0.675345,0.661421,0.582412,0.418855
0.674939,0.661384,0.582354,0.418813
0.674535,0.661347,0.582295,0.418771
0.67413,0.661309,0.582237,0.418729
0.673725,0.661272,0.582179,0.418687
0.673321,0.661234,0.582121,0.418646
0.672917,0.661197,0.582062,0.418604
0.672514,0.66116,0.582004,0.418562
0.67211,0.661122,0.581946,0.41852
0.671707,0.661085,0.581888,0.418478
0.671304,0.661047,0.58183,0.418436
0.670901,0.66101,0.581772,0.418394
0.670499,0.660973,0.581713,0.418353
0.670096,0.660935,0.581655,0.418311
0.669694,0.660898,0.581597,0.418269
0.669292,0.660861,0.581539,0.418227
0.668891,0.660823,0.581481,0.418185
0.66849,0.660786,0.581423,0.418143
0.668089,0.660748,0.581364,0.418102
0.667688,0.660711,0.581306,0.41806
0.667287,0.660674,0.581248,0.418018
0.666887,0.660636,0.58119,0.417976
0.666487,0.660599,0.581132,0.417934
0.666087,0.660562,0.581074,0.417893
0.665687,0.660524,0.581016,0.417851
0.665288,0.660487,0.580958,0.417809
0.664889,0.66045,0.580899,0.417767
0.66449,0.660412,0.580841,0.417725
0.664091,0.660375,0.580783,0.417684
0.663693,0.660338,0.580725,0.417642
0.663295,0.6603,0.580667,0.4176
0.662897,0.660263,0.580609,0.417558
0.662499,0.660226,0.580551,0.417517
0.662101,0.660188,0.580493,0.417475
0.661704,0.660151,0.580435,0.417433
0.661307,0.660113,0.580377,0.417391
0.660911,0.660076,0.580319,0.41735
0.660514,0.660039,0.580261,0.417308
0.660118,0.660002,0.580203,0.417266
0.659722,0.659964,0.580145,0.417224
0.659326,0.659927,0.580087,0.417183
0.65893,0.65989,0.580029,0.417141
0.658535,0.659852,0.579971,0.417099
0.65814,0.659815,0.579913,0.417058
0.657745,0.659778,0.579855,0.417016
0.65735,0.65974,0.579797,0.416974
0.656956,0.659703,0.579739,0.416933
0.656562,0.659666,0.579681,0.416891
0.656168,0.659628,0.579623,0.416849
0.655774,0.659591,0.579565,0.416807
0.655381,0.659554,0.579507,0.416766
0.654988,0.659516,0.579449,0.416724
0.654267,0.660139,0.578232,0.416682
0.653548,0.660761,0.577018,0.416641
0.652829,0.661385,0.575806,0.416599
0.652111,0.662009,0.574597,0.416557
0.651394,0.662633,0.573391,0.416516
0.650677,0.663258,0.572187,0.416474
0.649961,0.663884,0.570985,0.416432
0.649246,0.66451,0.569786,0.416391
0.648532,0.665137,0.56859,0.416349
0.647819,0.665765,0.567396,0.416308
0.647107,0.666393,0.566205,0.416266
0.646395,0.667021,0.565016,0.416224
0.645684,0.667651,0.563829,0.416183
0.644974,0.668281,0.562645,0.416141
0.644264,0.668911,0.561464,0.416099
0.643556,0.669542,0.560285,0.416058
0.642848,0.670174,0.559108,0.416016
0.642141,0.670806,0.557934,0.415975
0.641434,0.671439,0.556763,0.415933
0.640729,0.672072,0.555594,0.415891
0.640024,0.672706,0.554427,0.41585
0.63932,0.673341,0.553263,0.415808
0.638617,0.673976,0.552101,0.415767
0.637915,0.674612,0.550942,0.415725
0.637213,0.675248,0.549785,0.415684
0.636512,0.675885,0.548631,0.415642
0.635812,0.676523,0.547479,0.4156
0.635113,0.677161,0.546329,0.415559
0.634414,0.6778,0.545182,0.415517
0.633716,0.678439,0.544037,0.415476
0.633019,0.67908,0.542895,0.415434
0.632323,0.67972,0.541755,0.415393
0.631628,0.680361,0.540617,0.415351
0.630933,0.681003,0.539482,0.41531
0.630239,0.681646,0.538349,0.415268
0.629546,0.682289,0.537219,0.415226
0.628853,0.682932,0.536091,0.415185
0.628161,0.683577,0.534965,0.415143
0.627471,0.684222,0.533842,0.415102
0.62678,0.684867,0.532721,0.41506
0.626091,0.685513,0.531602,0.415019
0.625402,0.68616,0.530486,0.414977
0.624715,0.686807,0.529372,0.414936
0.624027,0.687455,0.52826,0.414894
0.623341,0.688104,0.527151,0.414853
0.622655,0.688753,0.526044,0.414811
0.621971,0.689403,0.52494,0.41477
0.621286,0.690053,0.523837,0.414728
0.620603,0.690704,0.522737,0.414687
0.61992,0.691356,0.52164,0.414646
0.619239,0.692008,0.520544,0.414604
0.618558,0.692661,0.519451,0.414563
0.617877,0.693314,0.518361,0.414521
0.617198,0.693968,0.517272,0.41448
0.616519,0.694623,0.516186,0.414438
0.615841,0.695278,0.515102,0.414397
0.615163,0.695934,0.51402,0.414355
0.614487,0.696591,0.512941,0.414314
0.613811,0.697248,0.511864,0.414273
0.613136,0.697905,0.510789,0.414231
0.612461,0.698564,0.509717,0.41419
0.611788,0.699223,0.508646,0.414148
0.611115,0.699883,0.507578,0.414107
0.610443,0.700543,0.506513,0.414065
0.609771,0.701204,0.505449,0.414024
0.6091,0.701865,0.504388,0.413983
0.60843,0.702527,0.503329,0.413941
0.607761,0.70319,0.502272,0.4139
0.607093,0.703853,0.501217,0.413858
0.606425,0.704517,0.500165,0.413817
0.605758,0.705182,0.499114,0.413776
0.605092,0.705847,0.498066,0.413734
0.604426,0.706513,0.49702,0.413693
0.603761,0.70718,0.495977,0.413652
0.603097,0.707847,0.494935,0.41361
0.602434,0.708515,0.493896,0.413569
0.601771,0.709183,0.492859,0.413527
0.601109,0.709852,0.491824,0.413486
0.600448,0.710522,0.490791,0.413445
0.599788,0.711192,0.489761,0.413403
0.599128,0.711863,0.488732,0.413362
0.598469,0.712535,0.487706,0.413321
0.597811,0.713207,0.486682,0.413279
0.597153,0.71388,0.48566,0.413238
0.596497,0.714553,0.48464,0.413197
0.595841,0.715227,0.483623,0.413155
0.595185,0.715902,0.482607,0.413114
0.594531,0.716577,0.481594,0.413073
0.593877,0.717253,0.480582,0.413032
0.593223,0.71793,0.479573,0.41299
0.592571,0.718607,0.478566,0.412949
0.591919,0.719285,0.477561,0.412908
0.591268,0.719964,0.476559,0.412866
0.590618,0.720643,0.475558,0.412825
0.589968,0.721323,0.474559,0.412784
0.589319,0.722003,0.473563,0.412742
0.588671,0.722684,0.472569,0.412701
0.588024,0.723366,0.471576,0.41266
0.587377,0.724049,0.470586,0.412619
0.586731,0.724732,0.469598,0.412577
0.586085,0.725415,0.468612,0.412536
0.585441,0.7261,0.467628,0.412495
0.584797,0.726785,0.466646,0.412454
0.584154,0.72747,0.465666,0.412412
0.583511,0.728157,0.464688,0.412371
0.582869,0.728844,0.463713,0.41233
0.582228,0.729531,0.462739,0.412289
0.581588,0.730219,0.461767,0.412247
0.580948,0.730908,0.460798,0.412206
0.580309,0.731598,0.45983,0.412165
0.579671,0.732288,0.458864,0.412124
0.579033,0.732979,0.457901,0.412083
0.578396,0.73367,0.456939,0.412041
0.57776,0.734362,0.45598,0.412
0.577125,0.735055,0.455022,0.411959
0.57649,0.735749,0.454067,0.411918
0.575856,0.736443,0.453114,0.411877
0.575222,0.737138,0.452162,0.411835
0.57459,0.737833,0.451213,0.411794
0.573958,0.738529,0.450265,0.411753
0.573326,0.739226,0.44932,0.411712
0.572696,0.739923,0.448376,0.411671
0.572066,0.740621,0.447435,0.41163
0.571437,0.74132,0.446495,0.411588
0.570808,0.742019,0.445558,0.411547
0.57018,0.742719,0.444622,0.411506
0.569553,0.74342,0.443688,0.411465
0.568927,0.744121,0.442757,0.411424
0.568301,0.744823,0.441827,0.411383
0.567676,0.745526,0.440899,0.411341
0.567052,0.746229,0.439974,0.4113
0.566428,0.746933,0.43905,0.411259
0.565805,0.747638,0.438128,0.411218
0.565748,0.747596,0.438084,0.411177
0.565692,0.747553,0.43804,0.411136
0.565635,0.747511,0.437996,0.411095
0.565579,0.747469,0.437953,0.411054
0.565522,0.747426,0.437909,0.411013
0.565465,0.747384,0.437865,0.410971
0.565409,0.747342,0.437821,0.41093
0.565352,0.7473,0.437777,0.410889
0.565296,0.747257,0.437734,0.410848
0.565239,0.747215,0.43769,0.410807
0.565183,0.747173,0.437646,0.410766
0.565126,0.747131,0.437602,0.410725
0.56507,0.747088,0.437559,0.410684
0.565013,0.747046,0.437515,0.410643
0.564957,0.747004,0.437471,0.410602
0.5649,0.746962,0.437427,0.410561
0.564844,0.746919,0.437384,0.41052
0.564787,0.746877,0.43734,0.410479
0.564731,0.746835,0.437296,0.410437
0.564674,0.746793,0.437252,0.410396
0.564618,0.74675,0.437209,0.410355
0.564561,0.746708,0.437165,0.410314
0.564505,0.746666,0.437121,0.410273
0.564449,0.746624,0.437077,0.410232
0.564392,0.746582,0.437034,0.410191
0.564336,0.746539,0.43699,0.41015
0.564279,0.746497,0.436946,0.410109
0.564223,0.746455,0.436903,0.410068
0.564166,0.746413,0.436859,0.410027
0.56411,0.74637,0.436815,0.409986
0.564054,0.746328,0.436772,0.409945
0.563997,0.746286,0.436728,0.409904
0.563941,0.746244,0.436684,0.409863
0.563884,0.746202,0.436641,0.409822
0.563828,0.746159,0.436597,0.409781
0.563772,0.746117,0.436553,0.40974
0.563715,0.746075,0.43651,0.409699
0.563659,0.746033,0.436466,0.409658
0.563602,0.745991,0.436422,0.409617
0.563546,0.745948,0.436379,0.409576
0.56349,0.745906,0.436335,0.409535
0.563433,0.745864,0.436291,0.409494
0.563377,0.745822,0.436248,0.409454
0.563321,0.74578,0.436204,0.409413
0.563264,0.745738,0.436161,0.409372
0.563208,0.745695,0.436117,0.409331
0.563152,0.745653,0.436073,0.40929
0.563095,0.745611,0.43603,0.409249
0.563039,0.745569,0.435986,0.409208
0.562983,0.745527,0.435942,0.409167
0.562926,0.745485,0.435899,0.409126
0.56287,0.745442,0.435855,0.409085
0.562814,0.7454,0.435812,0.409044
0.562758,0.745358,0.435768,0.409003
0.562701,0.745316,0.435725,0.408962
0.562645,0.745274,0.435681,0.408922
0.562589,0.745232,0.435637,0.408881
0.562533,0.745189,0.435594,0.40884
0.562476,0.745147,0.43555,0.408799
0.56242,0.745105,0.435507,0.408758
0.562364,0.745063,0.435463,0.408717
0.562308,0.745021,0.43542,0.408676
0.562251,0.744979,0.435376,0.408635
0.562195,0.744937,0.435333,0.408595
0.562139,0.744895,0.435289,0.408554
0.562083,0.744852,0.435245,0.408513
0.562026,0.74481,0.435202,0.408472
0.56197,0.744768,0.435158,0.408431
0.561914,0.744726,0.435115,0.40839
0.561858,0.744684,0.435071,0.408349
0.561802,0.744642,0.435028,0.408309
0.561746,0.7446,0.434984,0.408268
0.561689,0.744558,0.434941,0.408227
0.561633,0.744515,0.434897,0.408186
0.561577,0.744473,0.434854,0.408145
0.561521,0.744431,0.43481,0.408105
0.561465,0.744389,0.434767,0.408064
0.561409,0.744347,0.434723,0.408023
0.561352,0.744305,0.43468,0.407982
0.561296,0.744263,0.434637,0.407941
0.56124,0.744221,0.434593,0.4079
0.561184,0.744179,0.43455,0.40786
0.561128,0.744137,0.434506,0.407819
0.561072,0.744095,0.434463,0.407778
0.561016,0.744052,0.434419,0.407737
0.56096,0.74401,0.434376,0.407697
0.560903,0.743968,0.434332,0.407656
0.560847,0.743926,0.434289,0.407615
0.560791,0.743884,0.434246,0.407574
0.560735,0.743842,0.434202,0.407534
0.560679,0.7438,0.434159,0.407493
0.560623,0.743758,0.434115,0.407452
0.560567,0.743716,0.434072,0.407411
0.560511,0.743674,0.434028,0.407371
0.560455,0.743632,0.433985,0.40733
0.560399,0.74359,0.433942,0.407289
0.560343,0.743548,0.433898,0.407248
0.560287,0.743506,0.433855,0.407208
0.560231,0.743464,0.433811,0.407167
0.560175,0.743422,0.433768,0.407126
0.560119,0.743379,0.433725,0.407085
0.560063,0.743337,0.433681,0.407045
0.560007,0.743295,0.433638,0.407004
0.559951,0.743253,0.433595,0.406963
0.559895,0.743211,0.433551,0.406923
0.559839,0.743169,0.433508,0.406882
0.559783,0.743127,0.433465,0.406841
0.559727,0.743085,0.433421,0.406801
0.559671,0.743043,0.433378,0.40676
0.559615,0.743001,0.433335,0.406719
0.559559,0.742959,0.433291,0.406679
0.559503,0.742917,0.433248,0.406638
0.559447,0.742875,0.433205,0.406597
0.559391,0.742833,0.433161,0.406557
0.559335,0.742791,0.433118,0.406516
0.559279,0.742749,0.433075,0.406475
0.559223,0.742707,0.433031,0.406435
0.559167,0.742665,0.432988,0.406394
0.559111,0.742623,0.432945,0.406353
0.559055,0.742581,0.432901,0.406313
0.559,0.742539,0.432858,0.406272
0.558944,0.742497,0.432815,0.406231
0.558888,0.742455,0.432772,0.406191
0.558832,0.742413,0.432728,0.40615
0.558776,0.742371,0.432685,0.40611
0.55872,0.742329,0.432642,0.406069
0.558664,0.742287,0.432598,0.406028
0.558608,0.742245,0.432555,0.405988
0.558553,0.742203,0.432512,0.405947
0.558497,0.742161,0.432469,0.405907
0.558441,0.742119,0.432425,0.405866
0.558385,0.742077,0.432382,0.405825
0.558329,0.742035,0.432339,0.405785
0.558273,0.741993,0.432296,0.405744
0.558217,0.741951,0.432252,0.405704
0.558162,0.741909,0.432209,0.405663
0.558106,0.741868,0.432166,0.405623
0.55805,0.741826,0.432123,0.405582
0.557994,0.741784,0.43208,0.405541
0.557938,0.741742,0.432036,0.405501
0.557883,0.7417,0.431993,0.40546
0.557827,0.741658,0.43195,0.40542
0.557771,0.741616,0.431907,0.405379
0.557715,0.741574,0.431864,0.405339
0.55766,0.741532,0.43182,0.405298
0.557604,0.74149,0.431777,0.405258
0.557548,0.741448,0.431734,0.405217
0.557492,0.741406,0.431691,0.405177
0.557436,0.741364,0.431648,0.405136
0.557381,0.741322,0.431605,0.405096
0.557325,0.74128,0.431561,0.405055
0.557269,0.741238,0.431518,0.405015
0.557214,0.741197,0.431475,0.404974
0.557158,0.741155,0.431432,0.404934
0.557102,0.741113,0.431389,0.404893
0.557046,0.741071,0.431346,0.404853
0.556991,0.741029,0.431303,0.404812
0.556935,0.740987,0.431259,0.404772
0.556879,0.740945,0.431216,0.404731
0.556824,0.740903,0.431173,0.404691
0.556768,0.740861,0.43113,0.40465
0.556712,0.740819,0.431087,0.40461
0.556657,0.740777,0.431044,0.404569
0.556601,0.740736,0.431001,0.404529
0.556545,0.740694,0.430958,0.404488
0.55649,0.740652,0.430915,0.404448
0.556434,0.74061,0.430871,0.404407
0.556378,0.740568,0.430828,0.404367
0.556323,0.740526,0.430785,0.404327
0.556267,0.740484,0.430742,0.404286
0.556211,0.740442,0.430699,0.404246
0.556156,0.740401,0.430656,0.404205
0.5561,0.740359,0.430613,0.404165
0.556045,0.740317,0.43057,0.404124
0.555989,0.740275,0.430527,0.404084
0.555933,0.740233,0.430484,0.404044
0.555878,0.740191,0.430441,0.404003
0.555822,0.740149,0.430398,0.403963
0.555767,0.740107,0.430355,0.403922
0.555711,0.740066,0.430312,0.403882
0.555655,0.740024,0.430269,0.403842
0.5556,0.739982,0.430226,0.403801
0.555544,0.73994,0.430183,0.403761
0.555489,0.739898,0.43014,0.40372
0.555433,0.739856,0.430097,0.40368
0.555378,0.739815,0.430054,0.40364
0.555322,0.739773,0.430011,0.403599
0.555267,0.739731,0.429967,0.403559
0.555211,0.739689,0.429925,0.403519
0.555156,0.739647,0.429882,0.403478
0.5551,0.739605,0.429839,0.403438
0.555045,0.739564,0.429796,0.403398
0.554989,0.739522,0.429753,0.403357
0.554934,0.73948,0.42971,0.403317
0.554878,0.739438,0.429667,0.403277
0.554823,0.739396,0.429624,0.403236
0.554767,0.739354,0.429581,0.403196
0.554712,0.739313,0.429538,0.403156
0.554656,0.739271,0.429495,0.403115
0.554601,0.739229,0.429452,0.403075
0.554545,0.739187,0.429409,0.403035
0.55449,0.739145,0.429366,0.402994
0.554434,0.739104,0.429323,0.402954
0.554379,0.739062,0.42928,0.402914
0.554323,0.73902,0.429237,0.402874
0.554268,0.738978,0.429194,0.402833
0.554213,0.738936,0.429151,0.402793
0.554157,0.738895,0.429108,0.402753
0.554102,0.738853,0.429065,0.402712
0.554046,0.738811,0.429023,0.402672
0.553991,0.738769,0.42898,0.402632
0.553935,0.738727,0.428937,0.402592
0.55388,0.738686,0.428894,0.402551
0.553825,0.738644,0.428851,0.402511
0.553769,0.738602,0.428808,0.402471
0.553714,0.73856,0.428765,0.402431
0.553659,0.738519,0.428722,0.40239
0.553603,0.738477,0.428679,0.40235
0.553548,0.738435,0.428637,0.40231
0.553492,0.738393,0.428594,0.40227
0.553437,0.738352,0.428551,0.402229
0.553382,0.73831,0.428508,0.402189
0.553326,0.738268,0.428465,0.402149
0.553271,0.738226,0.428422,0.402109
0.553216,0.738185,0.428379,0.402069
0.55316,0.738143,0.428337,0.402028
0.553105,0.738101,0.428294,0.401988
0.55305,0.738059,0.428251,0.401948
0.552995,0.738018,0.428208,0.401908
0.552939,0.737976,0.428165,0.401868
0.552884,0.737934,0.428123,0.401827
0.552829,0.737892,0.42808,0.401787
0.552773,0.737851,0.428037,0.401747
0.552718,0.737809,0.427994,0.401707
0.552663,0.737767,0.427951,0.401667
0.552608,0.737725,0.427908,0.401626
0.552552,0.737684,0.427866,0.401586
0.552497,0.737642,0.427823,0.401546
0.552442,0.7376,0.42778,0.401506
0.552387,0.737559,0.427737,0.401466
0.552331,0.737517,0.427695,0.401426
0.552276,0.737475,0.427652,0.401386
0.552221,0.737433,0.427609,0.401345
0.552166,0.737392,0.427566,0.401305
0.55211,0.73735,0.427524,0.401265
0.552055,0.737308,0.427481,0.401225
0.552,0.737267,0.427438,0.401185
0.551945,0.737225,0.427395,0.401145
0.55189,0.737183,0.427353,0.401105
0.551834,0.737142,0.42731,0.401065
0.551779,0.7371,0.427267,0.401024
0.551724,0.737058,0.427224,0.400984
0.551669,0.737017,0.427182,0.400944
0.551614,0.736975,0.427139,0.400904
0.551559,0.736933,0.427096,0.400864
0.551503,0.736892,0.427053,0.400824
0.551448,0.73685,0.427011,0.400784
0.551393,0.736808,0.426968,0.400744
0.551338,0.736767,0.426925,0.400704
0.551283,0.736725,0.426883,0.400664
0.551228,0.736683,0.42684,0.400624
0.551173,0.736642,0.426797,0.400584
0.551117,0.7366,0.426755,0.400543
0.551062,0.736558,0.426712,0.400503
0.551007,0.736517,0.426669,0.400463
0.550952,0.736475,0.426627,0.400423
0.550897,0.736433,0.426584,0.400383
0.550842,0.736392,0.426541,0.400343
0.550787,0.73635,0.426499,0.400303
0.550732,0.736308,0.426456,0.400263
0.550677,0.736267,0.426413,0.400223
0.550622,0.736225,0.426371,0.400183
0.550567,0.736183,0.426328,0.400143
0.550512,0.736142,0.426285,0.400103
0.550456,0.7361,0.426243,0.400063
0.550401,0.736059,0.4262,0.400023
0.550346,0.736017,0.426158,0.399983
0.550291,0.735975,0.426115,0.399943
0.550236,0.735934,0.426072,0.399903
0.550181,0.735892,0.42603,0.399863
0.550126,0.73585,0.425987,0.399823
0.550071,0.735809,0.425945,0.399783
0.550016,0.735767,0.425902,0.399743
0.549961,0.735726,0.425859,0.399703
0.549906,0.735684,0.425817,0.399663
0.549851,0.735642,0.425774,0.399623
0.549796,0.735601,0.425732,0.399583
0.549741,0.735559,0.425689,0.399543
0.549686,0.735518,0.425646,0.399503
0.549631,0.735476,0.425604,0.399463
0.549576,0.735434,0.425561,0.399423
0.549521,0.735393,0.425519,0.399384
0.549467,0.735351,0.425476,0.399344
0.549412,0.73531,0.425434,0.399304
0.549357,0.735268,0.425391,0.399264
0.549302,0.735226,0.425349,0.399224
0.549247,0.735185,0.425306,0.399184
0.549192,0.735143,0.425264,0.399144
0.549137,0.735102,0.425221,0.399104
0.549082,0.73506,0.425178,0.399064
0.549027,0.735019,0.425136,0.399024
0.548972,0.734977,0.425093,0.398984
0.548917,0.734935,0.425051,0.398944
0.548862,0.734894,0.425008,0.398905
0.548808,0.734852,0.424966,0.398865
0.548753,0.734811,0.424923,0.398825
0.548698,0.734769,0.424881,0.398785
0.548643,0.734728,0.424838,0.398745
0.548588,0.734686,0.424796,0.398705
0.548533,0.734645,0.424754,0.398665
0.548478,0.734603,0.424711,0.398625
0.548423,0.734561,0.424669,0.398586
0.548369,0.73452,0.424626,0.398546
0.548314,0.734478,0.424584,0.398506
0.548259,0.734437,0.424541,0.398466
0.548204,0.734395,0.424499,0.398426
0.548149,0.734354,0.424456,0.398386
0.548094,0.734312,0.424414,0.398346
0.54804,0.734271,0.424371,0.398307
0.547985,0.734229,0.424329,0.398267
0.54793,0.734188,0.424287,0.398227
0.547875,0.734146,0.424244,0.398187
0.54782,0.734105,0.424202,0.398147
0.547766,0.734063,0.424159,0.398107
0.547711,0.734022,0.424117,0.398068
0.547656,0.73398,0.424074,0.398028
0.547601,0.733939,0.424032,0.397988
0.547547,0.733897,0.42399,0.397948
0.547492,0.733856,0.423947,0.397908
0.547437,0.733814,0.423905,0.397869
0.547382,0.733773,0.423862,0.397829
0.547328,0.733731,0.42382,0.397789
0.547273,0.73369,0.423778,0.397749
0.547218,0.733648,0.423735,0.39771
0.547163,0.733607,0.423693,0.39767
0.547109,0.733565,0.423651,0.39763
0.547054,0.733524,0.423608,0.39759
0.546999,0.733482,0.423566,0.39755
0.546945,0.733441,0.423523,0.397511
0.54689,0.733399,0.423481,0.397471
0.546835,0.733358,0.423439,0.397431
0.546781,0.733316,0.423396,0.397392
0.546726,0.733275,0.423354,0.397352
0.546671,0.733233,0.423312,0.397312
0.546617,0.733192,0.423269,0.397272
0.546562,0.73315,0.423227,0.397233
0.546507,0.733109,0.423185,0.397193
0.546453,0.733067,0.423142,0.397153
0.546398,0.733026,0.4231,0.397113
0.546343,0.732985,0.423058,0.397074
0.546289,0.732943,0.423015,0.397034
0.546234,0.732902,0.422973,0.396994
0.546179,0.73286,0.422931,0.396955
0.546125,0.732819,0.422889,0.396915
0.54607,0.732777,0.422846,0.396875
0.546016,0.732736,0.422804,0.396836
0.545961,0.732694,0.422762,0.396796
0.545906,0.732653,0.422719,0.396756
0.545852,0.732612,0.422677,0.396716
0.545797,0.73257,0.422635,0.396677
0.545743,0.732529,0.422593,0.396637
0.545688,0.732487,0.42255,0.396597
0.545633,0.732446,0.422508,0.396558
0.545579,0.732404,0.422466,0.396518
0.545524,0.732363,0.422424,0.396479
0.54547,0.732322,0.422381,0.396439
0.545415,0.73228,0.422339,0.396399
0.545361,0.732239,0.422297,0.39636
0.545306,0.732197,0.422255,0.39632
0.545252,0.732156,0.422212,0.39628
0.545197,0.732114,0.42217,0.396241
0.545143,0.732073,0.422128,0.396201
0.545088,0.732032,0.422086,0.396161
