energy,productivity,fun,hunger
0.767331,0.660617,0.790436,0.70402
0.767254,0.660564,0.814068,0.70395
0.766794,0.660511,0.813986,0.70388
0.766334,0.660458,0.813905,0.703809
0.765874,0.660406,0.813824,0.703739
0.765414,0.660353,0.813742,0.703669
0.764955,0.6603,0.813661,0.703598
0.764496,0.660247,0.813579,0.703528
0.764038,0.660194,0.813498,0.703457
0.763579,0.660141,0.813417,0.703387
0.763121,0.660088,0.813335,0.703317
0.762663,0.660036,0.813254,0.703246
0.762206,0.659983,0.813173,0.703176
0.761748,0.65993,0.813091,0.703106
0.761291,0.659877,0.81301,0.703035
0.760835,0.659824,0.812929,0.702965
0.760378,0.659771,0.812847,0.702895
0.759922,0.659719,0.812766,0.702825
0.759466,0.659666,0.812685,0.702754
0.759011,0.659613,0.812604,0.702684
0.758555,0.65956,0.812522,0.702614
0.7581,0.659507,0.812441,0.702544
0.757645,0.659455,0.81236,0.702473
0.757191,0.659402,0.812279,0.702403
0.756736,0.659349,0.812197,0.702333
0.756282,0.659296,0.812116,0.702263
0.755829,0.659243,0.812035,0.702192
0.755375,0.659191,0.811954,0.702122
0.754922,0.659138,0.811873,0.702052
0.754469,0.659085,0.811791,0.701982
0.754016,0.659032,0.81171,0.701911
0.753564,0.65898,0.811629,0.701841
0.753112,0.658927,0.811548,0.701771
0.75266,0.658874,0.811467,0.701701
0.752209,0.658821,0.811386,0.701631
0.751757,0.658769,0.811304,0.701561
0.751306,0.658716,0.811223,0.70149
0.750856,0.658663,0.811142,0.70142
0.750405,0.65861,0.811061,0.70135
0.749955,0.658558,0.81098,0.70128
0.749505,0.658505,0.810899,0.70121
0.749055,0.658452,0.810818,0.70114
0.748606,0.658399,0.810737,0.70107
0.748157,0.658347,0.810656,0.701
0.747708,0.658294,0.810575,0.700929
0.747259,0.658241,0.810494,0.700859
0.746811,0.658189,0.810412,0.700789
0.746363,0.658136,0.810331,0.700719
0.745915,0.658083,0.81025,0.700649
0.745468,0.658031,0.810169,0.700579
0.74502,0.657978,0.810088,0.700509
0.744573,0.657925,0.810007,0.700439
0.744127,0.657873,0.809926,0.700369
0.74368,0.65782,0.809845,0.700299
0.743234,0.657767,0.809764,0.700229
0.742788,0.657715,0.809683,0.700159
0.742343,0.657662,0.809602,0.700089
0.741897,0.657609,0.809521,0.700019
0.741452,0.657557,0.80944,0.699949
0.741007,0.657504,0.80936,0.699879
0.740563,0.657451,0.809279,0.699809
0.740118,0.657399,0.809198,0.699739
0.740044,0.657346,0.809117,0.699669
0.73997,0.657293,0.833307,0.699599
0.739526,0.657241,0.833224,0.699529
0.739083,0.657188,0.83314,0.699459
0.738639,0.657136,0.833057,0.699389
0.738196,0.657083,0.832974,0.699319
0.737753,0.65703,0.83289,0.699249
0.737311,0.656978,0.832807,0.699179
0.736868,0.656925,0.832724,0.699109
0.736426,0.656873,0.832641,0.699039
0.735984,0.65682,0.832557,0.698969
0.735543,0.656767,0.832474,0.6989
0.735102,0.656715,0.832391,0.69883
0.734661,0.656662,0.832308,0.69876
0.73422,0.65661,0.832224,0.69869
0.733779,0.656557,0.832141,0.69862
0.733339,0.656505,0.832058,0.69855
0.732899,0.656452,0.831975,0.69848
0.732459,0.6564,0.831891,0.698411
0.73202,0.656347,0.831808,0.698341
0.731581,0.656294,0.831725,0.698271
0.731142,0.656242,0.831642,0.698201
0.730703,0.656189,0.831559,0.698131
0.730265,0.656137,0.831476,0.698061
0.729827,0.656084,0.831392,0.697992
0.729389,0.656032,0.831309,0.697922
0.728951,0.655979,0.831226,0.697852
0.728514,0.655927,0.831143,0.697782
0.728077,0.655874,0.83106,0.697712
0.72764,0.655822,0.830977,0.697643
0.727204,0.655769,0.830894,0.697573
0.726767,0.655717,0.830811,0.697503
0.726331,0.655664,0.830728,0.697433
0.725895,0.655612,0.830644,0.697364
0.72546,0.655559,0.830561,0.697294
0.725025,0.655507,0.830478,0.697224
0.72459,0.655454,0.830395,0.697154
0.724155,0.655402,0.830312,0.697085
0.723721,0.655349,0.830229,0.697015
0.723286,0.655297,0.830146,0.696945
0.722852,0.655244,0.830063,0.696876
0.722419,0.655192,0.82998,0.696806
0.722347,0.65514,0.829897,0.696736
0.722274,0.655087,0.854709,0.696667
0.721841,0.655035,0.854623,0.696597
0.721408,0.654982,0.854538,0.696527
0.720975,0.65493,0.854452,0.696458
0.720543,0.654877,0.854367,0.696388
0.72011,0.654825,0.854281,0.696318
0.719678,0.654772,0.854196,0.696249
0.719246,0.65472,0.854111,0.696179
0.718815,0.654668,0.854025,0.696109
0.718384,0.654615,0.85394,0.69604
0.717953,0.654563,0.853854,0.69597
0.717522,0.65451,0.853769,0.695901
0.717091,0.654458,0.853684,0.695831
0.716661,0.654406,0.853598,0.695761
0.716231,0.654353,0.853513,0.695692
0.715802,0.654301,0.853427,0.695622
0.715372,0.654248,0.853342,0.695553
0.714943,0.654196,0.853257,0.695483
0.714514,0.654144,0.853171,0.695414
0.714085,0.654091,0.853086,0.695344
0.713657,0.654039,0.853001,0.695275
0.713229,0.653987,0.852916,0.695205
0.712801,0.653934,0.85283,0.695136
0.712373,0.653882,0.852745,0.695066
0.711946,0.65383,0.85266,0.694997
0.711519,0.653777,0.852574,0.694927
0.711092,0.653725,0.852489,0.694858
0.710665,0.653673,0.852404,0.694788
0.710239,0.65362,0.852319,0.694719
0.709813,0.653568,0.852233,0.694649
0.709387,0.653516,0.852148,0.69458
0.708961,0.653463,0.852063,0.69451
0.708536,0.653411,0.851978,0.694441
0.708111,0.653359,0.851893,0.694371
0.707686,0.653306,0.851807,0.694302
0.707261,0.653254,0.851722,0.694232
0.706837,0.653202,0.851637,0.694163
0.706413,0.653149,0.851552,0.694094
0.705989,0.653097,0.851467,0.694024
0.705566,0.653045,0.851382,0.693955
0.705142,0.652993,0.851296,0.693885
0.704719,0.65294,0.851211,0.693816
0.704297,0.652888,0.851126,0.693747
0.703874,0.652836,0.851041,0.693677
0.703452,0.652784,0.850956,0.693608
0.70303,0.652731,0.850871,0.693538
0.702608,0.652679,0.850786,0.693469
0.702186,0.652627,0.850701,0.6934
0.701765,0.652574,0.850616,0.69333
0.701344,0.652522,0.850531,0.693261
0.700923,0.65247,0.850446,0.693192
0.700503,0.652418,0.85036,0.693122
0.700083,0.652366,0.850275,0.693053
0.699662,0.652313,0.85019,0.692984
0.699243,0.652261,0.850105,0.692915
0.699173,0.652209,0.85002,0.692845
0.699103,0.652157,0.875433,0.692776
0.698683,0.652104,0.875346,0.692707
0.698264,0.652052,0.875258,0.692637
0.697845,0.652,0.875171,0.692568
0.697427,0.651948,0.875083,0.692499
0.697008,0.651896,0.874996,0.69243
0.69659,0.651843,0.874908,0.69236
0.696172,0.651791,0.874821,0.692291
0.695755,0.651739,0.874733,0.692222
0.695337,0.651687,0.874646,0.692153
0.69492,0.651635,0.874558,0.692083
0.694503,0.651583,0.874471,0.692014
0.694086,0.65153,0.874384,0.691945
0.69367,0.651478,0.874296,0.691876
0.693254,0.651426,0.874209,0.691807
0.692838,0.651374,0.874121,0.691738
0.692422,0.651322,0.874034,0.691668
0.692007,0.65127,0.873946,0.691599
0.691592,0.651218,0.873859,0.69153
0.691177,0.651165,0.873772,0.691461
0.690762,0.651113,0.873684,0.691392
0.690348,0.651061,0.873597,0.691323
0.689933,0.651009,0.87351,0.691253
0.689519,0.650957,0.873422,0.691184
0.689106,0.650905,0.873335,0.691115
0.688692,0.650853,0.873248,0.691046
0.688279,0.650801,0.87316,0.690977
0.687866,0.650748,0.873073,0.690908
0.687454,0.650696,0.872986,0.690839
0.687041,0.650644,0.872898,0.69077
0.686629,0.650592,0.872811,0.690701
0.686217,0.65054,0.872724,0.690632
0.685805,0.650488,0.872636,0.690563
0.685394,0.650436,0.872549,0.690493
0.684983,0.650384,0.872462,0.690424
0.684572,0.650332,0.872375,0.690355
0.684161,0.65028,0.872287,0.690286
0.683751,0.650228,0.8722,0.690217
0.68334,0.650176,0.872113,0.690148
0.68293,0.650124,0.872026,0.690079
0.682521,0.650072,0.871939,0.69001
0.682111,0.65002,0.871851,0.689941
0.681702,0.649967,0.871764,0.689872
0.681293,0.649915,0.871677,0.689803
0.680884,0.649863,0.87159,0.689734
0.680476,0.649811,0.871503,0.689665
0.680067,0.649759,0.871416,0.689596
0.679659,0.649707,0.871328,0.689527
0.679252,0.649655,0.871241,0.689458
0.678844,0.649603,0.871154,0.689389
0.678437,0.649551,0.871067,0.689321
0.67803,0.649499,0.87098,0.689252
0.677623,0.649447,0.870893,0.689183
0.677217,0.649395,0.870806,0.689114
0.67681,0.649343,0.870719,0.689045
0.676404,0.649291,0.870632,0.688976
0.675998,0.649239,0.870544,0.688907
0.675593,0.649187,0.870457,0.688838
0.675187,0.649135,0.87037,0.688769
0.674782,0.649083,0.870283,0.6887
0.674378,0.649032,0.870196,0.688632
0.673973,0.64898,0.870109,0.688563
0.673569,0.648928,0.870022,0.688494
0.673165,0.648876,0.869935,0.688425
0.672761,0.648824,0.869848,0.688356
0.672357,0.648772,0.869761,0.688287
0.671954,0.64872,0.869674,0.688218
0.67155,0.648668,0.869587,0.68815
0.671148,0.648616,0.8695,0.688081
0.670745,0.648564,0.869413,0.688012
0.670343,0.648512,0.869327,0.687943
0.66994,0.64846,0.86924,0.687874
0.669538,0.648408,0.869153,0.687806
0.669471,0.648356,0.869066,0.687737
0.669405,0.648304,0.868979,0.687668
0.669338,0.648253,0.868892,0.687599
0.669271,0.648201,0.868805,0.687531
0.669204,0.648149,0.868718,0.687462
0.669137,0.648097,0.868631,0.687393
0.66907,0.648045,0.868544,0.687324
0.669003,0.647993,0.868458,0.687256
0.668936,0.647941,0.868371,0.687187
0.668869,0.647889,0.868284,0.687118
0.668802,0.647837,0.868197,0.687049
0.668735,0.647786,0.86811,0.686981
0.668669,0.647734,0.868023,0.686912
0.668602,0.647682,0.867937,0.686843
0.668535,0.64763,0.86785,0.686775
0.668468,0.647578,0.867763,0.686706
0.668401,0.647526,0.867676,0.686637
0.668334,0.647475,0.86759,0.686569
0.668267,0.647423,0.867503,0.6865
0.668201,0.647371,0.867416,0.686431
0.668134,0.647319,0.867329,0.686363
0.668067,0.647267,0.867243,0.686294
0.668,0.647215,0.867156,0.686225
0.667933,0.647164,0.867069,0.686157
0.667867,0.647112,0.866982,0.686088
0.6678,0.64706,0.866896,0.68602
0.667733,0.647008,0.866809,0.685951
0.667666,0.646956,0.866722,0.685882
0.667599,0.646905,0.866636,0.685814
0.667533,0.646853,0.866549,0.685745
0.667466,0.646801,0.866462,0.685677
0.667399,0.646749,0.866376,0.685608
0.667332,0.646697,0.866289,0.68554
0.667266,0.646646,0.866202,0.685471
0.667199,0.646594,0.866116,0.685402
0.667132,0.646542,0.866029,0.685334
0.667066,0.64649,0.865943,0.685265
0.666999,0.646439,0.865856,0.685197
0.666932,0.646387,0.865769,0.685128
0.666865,0.646335,0.865683,0.68506
0.666799,0.646283,0.865596,0.684991
0.666732,0.646232,0.86551,0.684923
0.666665,0.64618,0.865423,0.684854
0.666599,0.646128,0.865337,0.684786
0.666532,0.646076,0.86525,0.684717
0.666465,0.646025,0.865164,0.684649
0.666399,0.645973,0.865077,0.68458
0.666332,0.645921,0.864991,0.684512
0.666266,0.64587,0.864904,0.684443
0.666199,0.645818,0.864818,0.684375
0.666132,0.645766,0.864731,0.684307
0.666066,0.645715,0.864645,0.684238
0.665999,0.645663,0.864558,0.68417
0.665932,0.645611,0.864472,0.684101
0.665866,0.645559,0.864385,0.684033
0.665799,0.645508,0.864299,0.683964
0.665733,0.645456,0.864212,0.683896
0.665666,0.645404,0.864126,0.683828
0.6656,0.645353,0.86404,0.683759
0.665533,0.645301,0.863953,0.683691
0.665466,0.645249,0.863867,0.683623
0.6654,0.645198,0.86378,0.683554
0.665333,0.645146,0.863694,0.683486
0.665267,0.645094,0.863608,0.683418
0.6652,0.645043,0.863521,0.683349
0.665134,0.644991,0.863435,0.683281
0.665067,0.64494,0.863349,0.683213
0.665001,0.644888,0.863262,0.683144
0.664934,0.644836,0.863176,0.683076
0.664868,0.644785,0.86309,0.683008
0.664801,0.644733,0.863003,0.682939
0.664735,0.644681,0.862917,0.682871
0.664668,0.64463,0.862831,0.682803
0.664602,0.644578,0.862744,0.682734
0.664535,0.644527,0.862658,0.682666
0.664469,0.644475,0.862572,0.682598
0.664403,0.644423,0.862486,0.68253
0.664336,0.644372,0.862399,0.682461
0.66427,0.64432,0.862313,0.682393
0.664203,0.644269,0.862227,0.682325
0.664137,0.644217,0.862141,0.682257
0.66407,0.644165,0.862054,0.682188
0.664004,0.644114,0.861968,0.68212
0.663938,0.644062,0.861882,0.682052
0.663871,0.644011,0.861796,0.681984
0.663805,0.643959,0.86171,0.681916
0.663738,0.643908,0.861623,0.681847
0.663672,0.643856,0.861537,0.681779
0.663606,0.643805,0.861451,0.681711
0.663539,0.643753,0.861365,0.681643
0.663473,0.643702,0.861279,0.681575
0.663407,0.64365,0.861193,0.681507
0.66334,0.643598,0.861107,0.681438
0.663274,0.643547,0.861021,0.68137
0.663208,0.643495,0.860934,0.681302
0.663141,0.643444,0.886674,0.681234
0.662743,0.643392,0.886585,0.681166
0.662346,0.643341,0.886496,0.681098
0.661948,0.643289,0.886408,0.68103
0.661551,0.643238,0.886319,0.680962
0.661154,0.643186,0.886231,0.680893
0.660758,0.643135,0.886142,0.680825
0.660361,0.643083,0.886053,0.680757
0.659965,0.643032,0.885965,0.680689
0.659569,0.64298,0.885876,0.680621
0.659174,0.642929,0.885787,0.680553
0.658778,0.642877,0.885699,0.680485
0.658383,0.642826,0.88561,0.680417
0.657988,0.642775,0.885522,0.680349
0.657593,0.642723,0.885433,0.680281
0.657199,0.642672,0.885345,0.680213
0.656804,0.64262,0.885256,0.680145
0.65641,0.642569,0.885168,0.680077
0.656016,0.642517,0.885079,0.680009
0.655623,0.642466,0.884991,0.679941
0.655229,0.642414,0.884902,0.679873
0.654836,0.642363,0.884814,0.679805
0.654443,0.642312,0.884725,0.679737
0.654051,0.64226,0.884637,0.679669
0.653658,0.642209,0.884548,0.679601
0.653266,0.642157,0.88446,0.679533
0.652874,0.642106,0.884371,0.679465
0.652483,0.642055,0.884283,0.679397
0.652091,0.642003,0.884194,0.679329
0.6517,0.641952,0.884106,0.679261
0.651309,0.6419,0.884018,0.679193
0.650918,0.641849,0.883929,0.679125
0.650528,0.641798,0.883841,0.679057
0.650137,0.641746,0.883752,0.678989
0.649747,0.641695,0.883664,0.678922
0.649358,0.641643,0.883576,0.678854
0.648968,0.641592,0.883487,0.678786
0.648579,0.641541,0.883399,0.678718
0.648514,0.641489,0.883311,0.67865
0.648449,0.641438,0.909719,0.678582
0.64806,0.641387,0.909628,0.678514
0.647671,0.641335,0.909537,0.678446
0.647283,0.641284,0.909446,0.678379
0.646894,0.641233,0.909355,0.678311
0.646506,0.641181,0.909264,0.678243
0.646118,0.64113,0.909173,0.678175
0.645731,0.641079,0.909082,0.678107
0.645343,0.641027,0.908991,0.67804
0.644956,0.640976,0.908901,0.677972
0.644569,0.640925,0.90881,0.677904
0.644182,0.640873,0.908719,0.677836
0.643796,0.640822,0.908628,0.677768
0.64341,0.640771,0.908537,0.677701
0.643024,0.640719,0.908446,0.677633
0.642638,0.640668,0.908355,0.677565
0.642252,0.640617,0.908265,0.677497
0.641867,0.640566,0.908174,0.67743
0.641803,0.640514,0.908083,0.677362
0.641739,0.640463,0.935232,0.677294
0.641354,0.640412,0.935138,0.677226
0.640969,0.64036,0.935045,0.677159
0.640584,0.640309,0.934951,0.677091
0.6402,0.640258,0.934858,0.677023
0.639816,0.640207,0.934764,0.676955
0.639432,0.640155,0.934671,0.676888
0.639048,0.640104,0.934577,0.67682
0.638665,0.640053,0.934484,0.676752
0.638282,0.640002,0.93439,0.676685
0.637899,0.63995,0.934297,0.676617
0.637516,0.639899,0.934204,0.676549
0.637134,0.639848,0.93411,0.676482
0.63707,0.639797,0.934017,0.676414
0.637006,0.639746,0.961941,0.676346
0.636624,0.639694,0.961845,0.676279
0.636242,0.639643,0.961749,0.676211
0.63586,0.639592,0.961652,0.676144
0.635479,0.639541,0.961556,0.676076
0.635098,0.63949,0.96146,0.676008
0.634717,0.639438,0.961364,0.675941
0.634336,0.639387,0.961268,0.675873
0.633955,0.639336,0.961172,0.675806
0.633575,0.639285,0.961076,0.675738
0.633195,0.639234,0.96098,0.67567
0.632815,0.639182,0.960883,0.675603
0.632435,0.639131,0.960787,0.675535
0.632056,0.63908,0.960691,0.675468
0.631677,0.639029,0.960595,0.6754
0.631298,0.638978,0.960499,0.675333
0.631235,0.638927,0.960403,0.675265
0.631171,0.638875,0.989116,0.675198
0.630793,0.638824,0.989017,0.67513
0.630414,0.638773,0.988918,0.675063
0.630036,0.638722,0.98882,0.674995
0.629658,0.638671,0.988721,0.674928
0.62928,0.63862,0.988622,0.67486
0.628903,0.638569,0.988523,0.674793
0.628525,0.638518,0.988424,0.674725
0.628148,0.638466,0.988325,0.674658
0.627772,0.638415,0.988226,0.67459
0.627395,0.638364,0.988128,0.674523
0.627019,0.638313,0.988029,0.674455
0.626642,0.638262,0.98793,0.674388
0.626266,0.638211,0.987831,0.67432
0.625891,0.63816,0.987732,0.674253
0.625515,0.638109,0.987634,0.674185
0.62514,0.638058,0.987535,0.674118
0.624765,0.638007,0.987436,0.674051
0.62439,0.637955,0.987337,0.673983
0.624015,0.637904,0.987239,0.673916
0.623641,0.637853,0.98714,0.673848
0.623267,0.637802,0.987041,0.673781
0.622893,0.637751,0.986942,0.673714
0.622519,0.6377,0.986844,0.673646
0.622146,0.637649,0.986745,0.673579
0.621772,0.637598,0.986646,0.673512
0.621399,0.637547,0.986548,0.673444
0.621027,0.637496,0.986449,0.673377
0.620654,0.637445,0.98635,0.67331
0.620592,0.637394,0.986252,0.673242
0.62053,0.637343,1,0.673175
0.620158,0.637292,0.9999,0.673108
0.619786,0.637241,0.9998,0.67304
0.619414,0.63719,0.9997,0.672973
0.619042,0.637139,0.9996,0.672906
0.618671,0.637088,0.9995,0.672838
0.6183,0.637037,0.9994,0.672771
0.617929,0.636986,0.9993,0.672704
0.617558,0.636935,0.9992,0.672637
0.617187,0.636884,0.9991,0.672569
0.616817,0.636833,0.999,0.672502
0.616447,0.636782,0.998901,0.672435
0.616077,0.636731,0.998801,0.672368
0.615708,0.63668,0.998701,0.6723
0.615338,0.636629,0.998601,0.672233
0.614969,0.636578,0.998501,0.672166
0.6146,0.636527,0.998401,0.672099
0.614231,0.636476,0.998301,0.672031
0.613863,0.636425,0.998202,0.671964
0.613495,0.636374,0.998102,0.671897
0.613126,0.636323,0.998002,0.67183
0.612759,0.636272,0.997902,0.671763
0.612391,0.636221,0.997802,0.671695
0.612024,0.63617,0.997703,0.671628
0.611656,0.636119,0.997603,0.671561
0.611289,0.636069,0.997503,0.671494
0.610923,0.636018,0.997403,0.671427
0.610556,0.635967,0.997304,0.67136
0.61019,0.635916,0.997204,0.671293
0.609824,0.635865,0.997104,0.671225
0.609458,0.635814,0.997004,0.671158
0.609092,0.635763,0.996905,0.671091
0.608727,0.635712,0.996805,0.671024
0.608362,0.635661,0.996705,0.670957
0.607997,0.63561,0.996606,0.67089
0.607632,0.635559,0.996506,0.670823
0.607267,0.635509,0.996406,0.670756
0.606903,0.635458,0.996307,0.670689
0.606842,0.635407,0.996207,0.670622
0.606782,0.635356,1,0.670555
0.606418,0.635305,0.9999,0.670487
0.606054,0.635254,0.9998,0.67042
0.60569,0.635203,0.9997,0.670353
0.605327,0.635153,0.9996,0.670286
0.604964,0.635102,0.9995,0.670219
0.604601,0.635051,0.9994,0.670152
0.604238,0.635,0.9993,0.670085
0.603875,0.634949,0.9992,0.670018
0.603513,0.634898,0.9991,0.669951
0.603151,0.634848,0.999,0.669884
0.602789,0.634797,0.998901,0.669817
0.602428,0.634746,0.998801,0.66975
0.602066,0.634695,0.998701,0.669683
0.601705,0.634644,0.998601,0.669616
0.601344,0.634593,0.998501,0.669549
0.600983,0.634543,0.998401,0.669482
0.600623,0.634492,0.998301,0.669415
0.600262,0.634441,0.998202,0.669349
0.599902,0.63439,0.998102,0.669282
0.599542,0.634339,0.998002,0.669215
0.599183,0.634289,0.997902,0.669148
0.598823,0.634238,0.997802,0.669081
0.598464,0.634187,0.997703,0.669014
0.598105,0.634136,0.997603,0.668947
0.597746,0.634086,0.997503,0.66888
0.597387,0.634035,0.997403,0.668813
0.597029,0.633984,0.997304,0.668746
0.596671,0.633933,0.997204,0.66868
0.596611,0.633883,0.997104,0.668613
0.596551,0.633832,1,0.668546
0.596193,0.633781,0.9999,0.668479
0.595836,0.63373,0.9998,0.668412
0.595478,0.63368,0.9997,0.668345
0.595121,0.633629,0.9996,0.668278
0.594764,0.633578,0.9995,0.668212
0.594407,0.633527,0.9994,0.668145
0.594051,0.633477,0.9993,0.668078
0.593694,0.633426,0.9992,0.668011
0.593338,0.633375,0.9991,0.667944
0.592982,0.633325,0.999,0.667878
0.592626,0.633274,0.998901,0.667811
0.592271,0.633223,0.998801,0.667744
0.591915,0.633173,0.998701,0.667677
0.59156,0.633122,0.998601,0.66761
0.591205,0.633071,0.998501,0.667544
0.590851,0.63302,0.998401,0.667477
0.590496,0.63297,0.998301,0.66741
0.590142,0.632919,0.998202,0.667343
0.589788,0.632868,0.998102,0.667277
0.589434,0.632818,0.998002,0.66721
0.58908,0.632767,0.997902,0.667143
0.588727,0.632716,0.997802,0.667077
0.588374,0.632666,0.997703,0.66701
0.588021,0.632615,0.997603,0.666943
0.587668,0.632565,0.997503,0.666876
0.587315,0.632514,0.997403,0.66681
0.586963,0.632463,0.997304,0.666743
0.586611,0.632413,0.997204,0.666676
0.586259,0.632362,0.997104,0.66661
0.585907,0.632311,0.997004,0.666543
0.585556,0.632261,0.996905,0.666476
0.585204,0.63221,0.996805,0.66641
0.584853,0.632159,0.996705,0.666343
0.584502,0.632109,0.996606,0.666276
0.584152,0.632058,0.996506,0.66621
0.583801,0.632008,0.996406,0.666143
0.583451,0.631957,0.996307,0.666077
0.583101,0.631906,0.996207,0.66601
0.582751,0.631856,0.996107,0.665943
0.582402,0.631805,0.996008,0.665877
0.582052,0.631755,0.995908,0.66581
0.581703,0.631704,0.995809,0.665744
0.581354,0.631654,0.995709,0.665677
0.581005,0.631603,0.995609,0.66561
0.580657,0.631552,0.99551,0.665544
0.580308,0.631502,0.99541,0.665477
