energy,productivity,fun,hunger
0.822416,0.853532,0.537397,0.734205
0.822333,0.853486,0.537344,0.734132
0.822251,0.853439,0.53729,0.734058
0.822169,0.853393,0.537236,0.733985
0.822087,0.853346,0.537182,0.733911
0.822004,0.8533,0.537129,0.733838
0.821922,0.853253,0.537075,0.733765
0.82184,0.853207,0.537021,0.733691
0.821758,0.85316,0.536968,0.733618
0.821676,0.853114,0.536914,0.733545
0.821594,0.853068,0.53686,0.733471
0.821511,0.853021,0.536806,0.733398
0.821429,0.852975,0.536753,0.733325
0.821347,0.852928,0.536699,0.733251
0.821265,0.852882,0.536645,0.733178
0.821183,0.852835,0.536592,0.733105
0.821101,0.852789,0.536538,0.733031
0.821019,0.852742,0.536484,0.732958
0.820937,0.852696,0.536431,0.732885
0.820854,0.85265,0.536377,0.732811
0.820772,0.852603,0.536324,0.732738
0.82069,0.852557,0.53627,0.732665
0.820608,0.85251,0.536216,0.732592
0.820526,0.852464,0.536163,0.732518
0.820444,0.852417,0.536109,0.732445
0.820362,0.852371,0.536055,0.732372
0.82028,0.852325,0.536002,0.732299
0.820198,0.852278,0.535948,0.732225
0.820116,0.852232,0.535895,0.732152
0.820034,0.852185,0.535841,0.732079
0.819952,0.852139,0.535787,0.732006
0.81987,0.852093,0.535734,0.731932
0.819788,0.852046,0.53568,0.731859
0.819706,0.852,0.535627,0.731786
0.819624,0.851953,0.535573,0.731713
0.819542,0.851907,0.53552,0.73164
0.81946,0.851861,0.535466,0.731567
0.819378,0.851814,0.535413,0.731493
0.819296,0.851768,0.535359,0.73142
0.819214,0.851721,0.535305,0.731347
0.819132,0.851675,0.535252,0.731274
0.81905,0.851629,0.535198,0.731201
0.818969,0.851582,0.535145,0.731128
0.818887,0.851536,0.535091,0.731055
0.818805,0.85149,0.535038,0.730982
0.818723,0.851443,0.534984,0.730908
0.818641,0.851397,0.534931,0.730835
0.818559,0.851351,0.534877,0.730762
0.818477,0.851304,0.534824,0.730689
0.818395,0.851258,0.53477,0.730616
0.818314,0.851211,0.534717,0.730543
0.818232,0.851165,0.534663,0.73047
0.81815,0.851119,0.53461,0.730397
0.818068,0.851072,0.534557,0.730324
0.817986,0.851026,0.534503,0.730251
0.817905,0.85098,0.53445,0.730178
0.817823,0.850933,0.534396,0.730105
0.817741,0.850887,0.534343,0.730032
0.817659,0.850841,0.534289,0.729959
0.817577,0.850794,0.534236,0.729886
0.817496,0.850748,0.534182,0.729813
0.817414,0.850702,0.534129,0.72974
0.817332,0.850655,0.534076,0.729667
0.81725,0.850609,0.534022,0.729594
0.817169,0.850563,0.533969,0.729521
0.817087,0.850516,0.533915,0.729448
0.817005,0.85047,0.533862,0.729375
0.816924,0.850424,0.533809,0.729302
0.816842,0.850378,0.533755,0.729229
0.81676,0.850331,0.533702,0.729156
0.816679,0.850285,0.533648,0.729083
0.816597,0.850239,0.533595,0.72901
0.816515,0.850192,0.533542,0.728938
0.816434,0.850146,0.533488,0.728865
0.816352,0.8501,0.533435,0.728792
0.81627,0.850053,0.533382,0.728719
0.816189,0.850007,0.533328,0.728646
0.816107,0.849961,0.533275,0.728573
0.816025,0.849915,0.533222,0.7285
0.815944,0.849868,0.533168,0.728427
0.815862,0.849822,0.533115,0.728355
0.815781,0.849776,0.533062,0.728282
0.815699,0.849729,0.533008,0.728209
0.815617,0.849683,0.532955,0.728136
0.815536,0.849637,0.532902,0.728063
0.815454,0.849591,0.532849,0.72799
0.815373,0.849544,0.532795,0.727918
0.815291,0.849498,0.532742,0.727845
0.81521,0.849452,0.532689,0.727772
0.815128,0.849406,0.532635,0.727699
0.815047,0.849359,0.532582,0.727627
0.814965,0.849313,0.532529,0.727554
0.814884,0.849267,0.532476,0.727481
0.814802,0.849221,0.532422,0.727408
0.814721,0.849174,0.532369,0.727336
0.814639,0.849128,0.532316,0.727263
0.814558,0.849082,0.532263,0.72719
0.814476,0.849036,0.53221,0.727117
0.814395,0.848989,0.532156,0.727045
0.814313,0.848943,0.532103,0.726972
0.814232,0.848897,0.53205,0.726899
0.814151,0.848851,0.531997,0.726827
0.814069,0.848805,0.531943,0.726754
0.813988,0.848758,0.53189,0.726681
0.813906,0.848712,0.531837,0.726609
0.813825,0.848666,0.531784,0.726536
0.813744,0.84862,0.531731,0.726463
0.813662,0.848573,0.531678,0.726391
0.813581,0.848527,0.531624,0.726318
0.8135,0.848481,0.531571,0.726245
0.813418,0.848435,0.531518,0.726173
0.813337,0.848389,0.531465,0.7261
0.813255,0.848342,0.531412,0.726027
0.813174,0.848296,0.531359,0.725955
0.813093,0.84825,0.531305,0.725882
0.813012,0.848204,0.531252,0.72581
0.81293,0.848158,0.531199,0.725737
0.812849,0.848112,0.531146,0.725665
0.812768,0.848065,0.531093,0.725592
0.812686,0.848019,0.53104,0.725519
0.812605,0.847973,0.530987,0.725447
0.812524,0.847927,0.530934,0.725374
0.812443,0.847881,0.530881,0.725302
0.812361,0.847834,0.530827,0.725229
0.81228,0.847788,0.530774,0.725157
0.812199,0.847742,0.530721,0.725084
0.812118,0.847696,0.530668,0.725012
0.812036,0.84765,0.530615,0.724939
0.811955,0.847604,0.530562,0.724867
0.811874,0.847557,0.530509,0.724794
0.811793,0.847511,0.530456,0.724722
0.811712,0.847465,0.530403,0.724649
0.811631,0.847419,0.53035,0.724577
0.811549,0.847373,0.530297,0.724504
0.811468,0.847327,0.530244,0.724432
0.811387,0.847281,0.530191,0.724359
0.811306,0.847234,0.530138,0.724287
0.811225,0.847188,0.530085,0.724215
0.811144,0.847142,0.530032,0.724142
0.811063,0.847096,0.529979,0.72407
0.810981,0.84705,0.529926,0.723997
0.8109,0.847004,0.529873,0.723925
0.810819,0.846958,0.52982,0.723853
0.810738,0.846912,0.529767,0.72378
0.810657,0.846865,0.529714,0.723708
0.810576,0.846819,0.529661,0.723635
0.810495,0.846773,0.529608,0.723563
0.810414,0.846727,0.529555,0.723491
0.810333,0.846681,0.529502,0.723418
0.810252,0.846635,0.529449,0.723346
0.810171,0.846589,0.529396,0.723274
0.81009,0.846543,0.529343,0.723201
0.810009,0.846497,0.52929,0.723129
0.809928,0.846451,0.529237,0.723057
0.809847,0.846404,0.529184,0.722984
0.809766,0.846358,0.529131,0.722912
0.809685,0.846312,0.529079,0.72284
0.809604,0.846266,0.529026,0.722768
0.809523,0.84622,0.528973,0.722695
0.809442,0.846174,0.52892,0.722623
0.809361,0.846128,0.528867,0.722551
0.80928,0.846082,0.528814,0.722478
0.809199,0.846036,0.528761,0.722406
0.809118,0.84599,0.528708,0.722334
0.809037,0.845944,0.528655,0.722262
0.808956,0.845898,0.528603,0.722189
0.808876,0.845852,0.52855,0.722117
0.808795,0.845805,0.528497,0.722045
0.808714,0.845759,0.528444,0.721973
0.808633,0.845713,0.528391,0.721901
0.808552,0.845667,0.528338,0.721828
0.808471,0.845621,0.528285,0.721756
0.80839,0.845575,0.528233,0.721684
0.808309,0.845529,0.52818,0.721612
0.808229,0.845483,0.528127,0.72154
0.808148,0.845437,0.528074,0.721468
0.808067,0.845391,0.528021,0.721395
0.807986,0.845345,0.527969,0.721323
0.807905,0.845299,0.527916,0.721251
0.807825,0.845253,0.527863,0.721179
0.807744,0.845207,0.52781,0.721107
0.807663,0.845161,0.527757,0.721035
0.807582,0.845115,0.527705,0.720963
0.807502,0.845069,0.527652,0.720891
0.807421,0.845023,0.527599,0.720819
0.80734,0.844977,0.527546,0.720746
0.807259,0.844931,0.527494,0.720674
0.807179,0.844885,0.527441,0.720602
0.807098,0.844839,0.527388,0.72053
0.807017,0.844793,0.527335,0.720458
0.806936,0.844747,0.527283,0.720386
0.806856,0.844701,0.52723,0.720314
0.806775,0.844655,0.527177,0.720242
0.806694,0.844609,0.527124,0.72017
0.806614,0.844563,0.527072,0.720098
0.806533,0.844517,0.527019,0.720026
0.806452,0.844471,0.526966,0.719954
0.806372,0.844425,0.526914,0.719882
0.806291,0.844379,0.526861,0.71981
0.806211,0.844333,0.526808,0.719738
0.80613,0.844287,0.526756,0.719666
0.806049,0.844241,0.526703,0.719594
0.805969,0.844195,0.52665,0.719522
0.805888,0.844149,0.526598,0.71945
0.805807,0.844103,0.526545,0.719378
0.805727,0.844057,0.526492,0.719306
0.805646,0.844011,0.52644,0.719234
0.805566,0.843965,0.526387,0.719163
0.805485,0.843919,0.526334,0.719091
0.805405,0.843873,0.526282,0.719019
0.805324,0.843827,0.526229,0.718947
0.805244,0.843781,0.526176,0.718875
0.805163,0.843735,0.526124,0.718803
0.805083,0.843689,0.526071,0.718731
0.805002,0.843644,0.526019,0.718659
0.804922,0.843598,0.525966,0.718587
0.804841,0.843552,0.525913,0.718516
0.804761,0.843506,0.525861,0.718444
0.80468,0.84346,0.525808,0.718372
0.8046,0.843414,0.525756,0.7183
0.804519,0.843368,0.525703,0.718228
0.804439,0.843322,0.525651,0.718156
0.804358,0.843276,0.525598,0.718085
0.804278,0.84323,0.525545,0.718013
0.804197,0.843184,0.525493,0.717941
0.804117,0.843138,0.52544,0.717869
0.804037,0.843092,0.525388,0.717797
0.803956,0.843047,0.525335,0.717726
0.803876,0.843001,0.525283,0.717654
0.803795,0.842955,0.52523,0.717582
0.803715,0.842909,0.525178,0.71751
0.803635,0.842863,0.525125,0.717439
0.803554,0.842817,0.525073,0.717367
0.803474,0.842771,0.52502,0.717295
0.803394,0.842725,0.524968,0.717223
0.803313,0.842679,0.524915,0.717152
0.803233,0.842633,0.524863,0.71708
0.803153,0.842588,0.52481,0.717008
0.803072,0.842542,0.524758,0.716936
0.802992,0.842496,0.524705,0.716865
0.802912,0.84245,0.524653,0.716793
0.802831,0.842404,0.5246,0.716721
0.802751,0.842358,0.524548,0.71665
0.802671,0.842312,0.524495,0.716578
0.802591,0.842266,0.524443,0.716506
0.80251,0.842221,0.52439,0.716435
0.80243,0.842175,0.524338,0.716363
0.80235,0.842129,0.524286,0.716291
0.80227,0.842083,0.524233,0.71622
0.802189,0.842037,0.524181,0.716148
0.802109,0.841991,0.524128,0.716077
0.802029,0.841945,0.524076,0.716005
0.801949,0.8419,0.524023,0.715933
0.801868,0.841854,0.523971,0.715862
0.801788,0.841808,0.523919,0.71579
0.801708,0.841762,0.523866,0.715719
0.801628,0.841716,0.523814,0.715647
0.801548,0.84167,0.523761,0.715575
0.801468,0.841625,0.523709,0.715504
0.801387,0.841579,0.523657,0.715432
0.801307,0.841533,0.523604,0.715361
0.801227,0.841487,0.523552,0.715289
0.801147,0.841441,0.5235,0.715218
0.801067,0.841395,0.523447,0.715146
0.800987,0.84135,0.523395,0.715075
0.800907,0.841304,0.523343,0.715003
0.800827,0.841258,0.52329,0.714932
0.800747,0.841212,0.523238,0.71486
0.800667,0.841166,0.523186,0.714789
0.800586,0.841121,0.523133,0.714717
0.800506,0.841075,0.523081,0.714646
0.800426,0.841029,0.523029,0.714574
0.800346,0.840983,0.522976,0.714503
0.800266,0.840937,0.522924,0.714431
0.800186,0.840892,0.522872,0.71436
0.800106,0.840846,0.52282,0.714289
0.800026,0.8408,0.522767,0.714217
0.799946,0.840754,0.522715,0.714146
0.799866,0.840708,0.522663,0.714074
0.799786,0.840663,0.52261,0.714003
0.799706,0.840617,0.522558,0.713931
0.799626,0.840571,0.522506,0.71386
0.799546,0.840525,0.522454,0.713789
0.799466,0.84048,0.522401,0.713717
0.799386,0.840434,0.522349,0.713646
0.799306,0.840388,0.522297,0.713575
0.799227,0.840342,0.522245,0.713503
0.799147,0.840297,0.522192,0.713432
0.799067,0.840251,0.52214,0.713361
0.798987,0.840205,0.522088,0.713289
0.798907,0.840159,0.522036,0.713218
0.798827,0.840114,0.521984,0.713147
0.798747,0.840068,0.521931,0.713075
0.798667,0.840022,0.521879,0.713004
0.798587,0.839976,0.521827,0.712933
0.798508,0.839931,0.521775,0.712861
0.798428,0.839885,0.521723,0.71279
0.798348,0.839839,0.521671,0.712719
0.798268,0.839793,0.521618,0.712647
0.798188,0.839748,0.521566,0.712576
0.798108,0.839702,0.521514,0.712505
0.798029,0.839656,0.521462,0.712434
0.797949,0.83961,0.52141,0.712362
0.797869,0.839565,0.521358,0.712291
0.797789,0.839519,0.521305,0.71222
0.797709,0.839473,0.521253,0.712149
0.79763,0.839428,0.521201,0.712078
0.79755,0.839382,0.521149,0.712006
0.79747,0.839336,0.521097,0.711935
0.79739,0.83929,0.521045,0.711864
0.797311,0.839245,0.520993,0.711793
0.797231,0.839199,0.520941,0.711722
0.797151,0.839153,0.520889,0.71165
0.797071,0.839108,0.520836,0.711579
0.796992,0.839062,0.520784,0.711508
0.796912,0.839016,0.520732,0.711437
0.796832,0.838971,0.52068,0.711366
0.796753,0.838925,0.520628,0.711295
0.796673,0.838879,0.520576,0.711224
0.796593,0.838834,0.520524,0.711152
0.796514,0.838788,0.520472,0.711081
0.796434,0.838742,0.52042,0.71101
0.796354,0.838697,0.520368,0.710939
0.796275,0.838651,0.520316,0.710868
0.796195,0.838605,0.520264,0.710797
0.796115,0.83856,0.520212,0.710726
0.796036,0.838514,0.52016,0.710655
0.795956,0.838468,0.520108,0.710584
0.795877,0.838423,0.520056,0.710513
0.795797,0.838377,0.520004,0.710442
0.795718,0.838331,0.519952,0.710371
0.795638,0.838286,0.5199,0.7103
0.795558,0.83824,0.519848,0.710228
0.795479,0.838194,0.519796,0.710157
0.795399,0.838149,0.519744,0.710086
0.79532,0.838103,0.519692,0.710015
0.79524,0.838057,0.51964,0.709944
0.795161,0.838012,0.519588,0.709873
0.795081,0.837966,0.519536,0.709802
0.795002,0.837921,0.519484,0.709731
0.794922,0.837875,0.519432,0.709661
0.794843,0.837829,0.51938,0.70959
0.794763,0.837784,0.519328,0.709519
0.794684,0.837738,0.519276,0.709448
0.794604,0.837692,0.519224,0.709377
0.794525,0.837647,0.519172,0.709306
0.794445,0.837601,0.51912,0.709235
0.794366,0.837556,0.519069,0.709164
0.794286,0.83751,0.519017,0.709093
0.794207,0.837464,0.518965,0.709022
0.794128,0.837419,0.518913,0.708951
0.794048,0.837373,0.518861,0.70888
0.793969,0.837328,0.518809,0.708809
0.793889,0.837282,0.518757,0.708738
0.79381,0.837236,0.518705,0.708668
0.793731,0.837191,0.518653,0.708597
0.793651,0.837145,0.518602,0.708526
0.793572,0.8371,0.51855,0.708455
0.793492,0.837054,0.518498,0.708384
0.793413,0.837008,0.518446,0.708313
0.793334,0.836963,0.518394,0.708243
0.793254,0.836917,0.518342,0.708172
0.793175,0.836872,0.51829,0.708101
0.793096,0.836826,0.518239,0.70803
0.793017,0.836781,0.518187,0.707959
0.792937,0.836735,0.518135,0.707888
0.792858,0.836689,0.518083,0.707818
0.792779,0.836644,0.518031,0.707747
0.792699,0.836598,0.51798,0.707676
0.79262,0.836553,0.517928,0.707605
0.792541,0.836507,0.517876,0.707535
0.792462,0.836462,0.517824,0.707464
0.792382,0.836416,0.517772,0.707393
0.792303,0.836371,0.517721,0.707322
0.792224,0.836325,0.517669,0.707252
0.792145,0.836279,0.517617,0.707181
0.792065,0.836234,0.517565,0.70711
0.791986,0.836188,0.517514,0.707039
0.791907,0.836143,0.517462,0.706969
0.791828,0.836097,0.51741,0.706898
0.791749,0.836052,0.517358,0.706827
0.791669,0.836006,0.517307,0.706757
0.79159,0.835961,0.517255,0.706686
0.791511,0.835915,0.517203,0.706615
0.791432,0.83587,0.517151,0.706545
0.791353,0.835824,0.5171,0.706474
0.791274,0.835779,0.517048,0.706403
0.791195,0.835733,0.516996,0.706333
0.791115,0.835688,0.516945,0.706262
0.791036,0.835642,0.516893,0.706191
0.790957,0.835597,0.516841,0.706121
0.790878,0.835551,0.51679,0.70605
0.790799,0.835506,0.516738,0.70598
0.79072,0.83546,0.516686,0.705909
0.790641,0.835415,0.516635,0.705838
0.790562,0.835369,0.516583,0.705768
0.790483,0.835324,0.516531,0.705697
0.790404,0.835278,0.51648,0.705627
0.790325,0.835233,0.516428,0.705556
0.790246,0.835187,0.516376,0.705486
0.790167,0.835142,0.516325,0.705415
0.790088,0.835096,0.516273,0.705345
0.790009,0.835051,0.516221,0.705274
0.78993,0.835005,0.51617,0.705203
0.789851,0.83496,0.516118,0.705133
0.789772,0.834914,0.516067,0.705062
0.789693,0.834869,0.516015,0.704992
0.789614,0.834824,0.515963,0.704921
0.789535,0.834778,0.515912,0.704851
0.789456,0.834733,0.51586,0.70478
0.789377,0.834687,0.515809,0.70471
0.789298,0.834642,0.515757,0.70464
0.789219,0.834596,0.515705,0.704569
0.78914,0.834551,0.515654,0.704499
0.789061,0.834505,0.515602,0.704428
0.788982,0.83446,0.515551,0.704358
0.788903,0.834414,0.515499,0.704287
0.788824,0.834369,0.515448,0.704217
0.788746,0.834324,0.515396,0.704146
0.788667,0.834278,0.515344,0.704076
0.788588,0.834233,0.515293,0.704006
0.788509,0.834187,0.515241,0.703935
0.78843,0.834142,0.51519,0.703865
0.788351,0.834096,0.515138,0.703794
0.788272,0.834051,0.515087,0.703724
0.788194,0.834006,0.515035,0.703654
0.788115,0.83396,0.514984,0.703583
0.788036,0.833915,0.514932,0.703513
0.787957,0.833869,0.514881,0.703443
0.787878,0.833824,0.514829,0.703372
0.7878,0.833779,0.514778,0.703302
0.787721,0.833733,0.514726,0.703232
0.787642,0.833688,0.514675,0.703161
0.787563,0.833642,0.514623,0.703091
0.787485,0.833597,0.514572,0.703021
0.787406,0.833552,0.514521,0.70295
0.787327,0.833506,0.514469,0.70288
0.787248,0.833461,0.514418,0.70281
0.78717,0.833415,0.514366,0.702739
0.787091,0.83337,0.514315,0.702669
0.787012,0.833325,0.514263,0.702599
0.786933,0.833279,0.514212,0.702529
0.786855,0.833234,0.514161,0.702458
0.786776,0.833189,0.514109,0.702388
0.786697,0.833143,0.514058,0.702318
0.786619,0.833098,0.514006,0.702248
0.78654,0.833052,0.513955,0.702177
0.786461,0.833007,0.513903,0.702107
0.786383,0.832962,0.513852,0.702037
0.786304,0.832916,0.513801,0.701967
0.786225,0.832871,0.513749,0.701897
0.786147,0.832826,0.513698,0.701826
0.786068,0.83278,0.513647,0.701756
0.78599,0.832735,0.513595,0.701686
0.785911,0.83269,0.513544,0.701616
0.785832,0.832644,0.513493,0.701546
0.785754,0.832599,0.513441,0.701476
0.785675,0.832554,0.51339,0.701405
0.785597,0.832508,0.513338,0.701335
0.785518,0.832463,0.513287,0.701265
0.78544,0.832418,0.513236,0.701195
0.785361,0.832372,0.513184,0.701125
0.785283,0.832327,0.513133,0.701055
0.785204,0.832282,0.513082,0.700985
0.785125,0.832236,0.513031,0.700915
0.785047,0.832191,0.512979,0.700845
0.784968,0.832146,0.512928,0.700774
0.78489,0.8321,0.512877,0.700704
0.784811,0.832055,0.512825,0.700634
0.784733,0.83201,0.512774,0.700564
0.784655,0.831964,0.512723,0.700494
0.784576,0.831919,0.512672,0.700424
0.784498,0.831874,0.51262,0.700354
0.784419,0.831829,0.512569,0.700284
0.784341,0.831783,0.512518,0.700214
0.784262,0.831738,0.512466,0.700144
0.784184,0.831693,0.512415,0.700074
0.784105,0.831647,0.512364,0.700004
0.784027,0.831602,0.512313,0.699934
0.783949,0.831557,0.512262,0.699864
0.78387,0.831512,0.51221,0.699794
0.783792,0.831466,0.512159,0.699724
0.783713,0.831421,0.512108,0.699654
0.783635,0.831376,0.512057,0.699584
0.783557,0.83133,0.512005,0.699514
0.783478,0.831285,0.511954,0.699444
0.7834,0.83124,0.511903,0.699374
0.783322,0.831195,0.511852,0.699304
0.783243,0.831149,0.511801,0.699234
0.783165,0.831104,0.51175,0.699164
0.783087,0.831059,0.511698,0.699095
0.783008,0.831014,0.511647,0.699025
0.78293,0.830968,0.511596,0.698955
0.782852,0.830923,0.511545,0.698885
0.782774,0.830878,0.511494,0.698815
0.782695,0.830833,0.511443,0.698745
0.782617,0.830787,0.511391,0.698675
0.782539,0.830742,0.51134,0.698605
0.78246,0.830697,0.511289,0.698535
0.782382,0.830652,0.511238,0.698466
0.782304,0.830606,0.511187,0.698396
0.782226,0.830561,0.511136,0.698326
0.782148,0.830516,0.511085,0.698256
0.782069,0.830471,0.511034,0.698186
0.781991,0.830426,0.510982,0.698116
0.781913,0.83038,0.510931,0.698047
0.781835,0.830335,0.51088,0.697977
0.781757,0.83029,0.510829,0.697907
0.781678,0.830245,0.510778,0.697837
0.7816,0.830199,0.510727,0.697767
0.781522,0.830154,0.510676,0.697698
0.781444,0.830109,0.510625,0.697628
0.781366,0.830064,0.510574,0.697558
0.781288,0.830019,0.510523,0.697488
0.781209,0.829973,0.510472,0.697419
0.781131,0.829928,0.510421,0.697349
0.781053,0.829883,0.51037,0.697279
0.780975,0.829838,0.510319,0.697209
0.780897,0.829793,0.510268,0.69714
0.780819,0.829747,0.510216,0.69707
0.780741,0.829702,0.510165,0.697
0.780663,0.829657,0.510114,0.696931
0.780585,0.829612,0.510063,0.696861
0.780507,0.829567,0.510012,0.696791
0.780429,0.829522,0.509961,0.696722
0.780351,0.829476,0.50991,0.696652
0.780273,0.829431,0.509859,0.696582
0.780194,0.829386,0.509808,0.696513
0.780116,0.829341,0.509757,0.696443
0.780038,0.829296,0.509706,0.696373
0.77996,0.829251,0.509656,0.696304
0.779882,0.829205,0.509605,0.696234
0.779804,0.82916,0.509554,0.696164
0.779726,0.829115,0.509503,0.696095
0.779649,0.82907,0.509452,0.696025
0.779571,0.829025,0.509401,0.695955
0.779493,0.82898,0.50935,0.695886
0.779415,0.828935,0.509299,0.695816
0.779337,0.828889,0.509248,0.695747
0.779259,0.828844,0.509197,0.695677
0.779181,0.828799,0.509146,0.695608
0.779103,0.828754,0.509095,0.695538
0.779025,0.828709,0.509044,0.695468
0.778947,0.828664,0.508993,0.695399
0.778869,0.828619,0.508942,0.695329
0.778791,0.828574,0.508892,0.69526
0.778713,0.828528,0.508841,0.69519
0.778636,0.828483,0.50879,0.695121
0.778558,0.828438,0.508739,0.695051
0.77848,0.828393,0.508688,0.694982
0.778402,0.828348,0.508637,0.694912
0.778324,0.828303,0.508586,0.694843
0.778246,0.828258,0.508535,0.694773
0.778169,0.828213,0.508485,0.694704
0.778091,0.828168,0.508434,0.694634
0.778013,0.828122,0.508383,0.694565
0.777935,0.828077,0.508332,0.694495
0.777857,0.828032,0.508281,0.694426
0.77778,0.827987,0.50823,0.694357
0.777702,0.827942,0.50818,0.694287
0.777624,0.827897,0.508129,0.694218
