energy,productivity,fun,hunger
0.614154,0.706345,0.837536,0.932414
0.614093,0.706331,0.862576,0.93232
0.613724,0.706316,0.862489,0.932227
0.613356,0.706301,0.862403,0.932134
0.612988,0.706287,0.862317,0.932041
0.61262,0.706272,0.862231,0.931947
0.612253,0.706257,0.862144,0.931854
0.611885,0.706243,0.862058,0.931761
0.611518,0.706228,0.861972,0.931668
0.611151,0.706214,0.861886,0.931575
0.610785,0.706199,0.8618,0.931482
0.610418,0.706184,0.861713,0.931388
0.610052,0.70617,0.861627,0.931295
0.609686,0.706155,0.861541,0.931202
0.60932,0.706141,0.861455,0.931109
0.608955,0.706126,0.861369,0.931016
0.608589,0.706111,0.861283,0.930923
0.608224,0.706097,0.861197,0.93083
0.607859,0.706082,0.86111,0.930737
0.607495,0.706068,0.861024,0.930644
0.60713,0.706053,0.860938,0.93055
0.606766,0.706038,0.860852,0.930457
0.606402,0.706024,0.860766,0.930364
0.606038,0.706009,0.86068,0.930271
0.605675,0.705994,0.860594,0.930178
0.605311,0.70598,0.860508,0.930085
0.605251,0.705965,0.860422,0.929992
0.60519,0.705951,0.886146,0.929899
0.604827,0.705936,0.886057,0.929806
0.604464,0.705921,0.885969,0.929713
0.604102,0.705907,0.88588,0.92962
0.603739,0.705892,0.885791,0.929527
0.603377,0.705878,0.885703,0.929434
0.603015,0.705863,0.885614,0.929342
0.602653,0.705848,0.885526,0.929249
0.602292,0.705834,0.885437,0.929156
0.60193,0.705819,0.885349,0.929063
0.601569,0.705805,0.88526,0.92897
0.601208,0.70579,0.885171,0.928877
0.600847,0.705775,0.885083,0.928784
0.600487,0.705761,0.884994,0.928691
0.600127,0.705746,0.884906,0.928598
0.599767,0.705732,0.884817,0.928505
0.599407,0.705717,0.884729,0.928413
0.599047,0.705702,0.884641,0.92832
0.598688,0.705688,0.884552,0.928227
0.598329,0.705673,0.884464,0.928134
0.59797,0.705659,0.884375,0.928041
0.597611,0.705644,0.884287,0.927948
0.597252,0.705629,0.884198,0.927856
0.596894,0.705615,0.88411,0.927763
0.596536,0.7056,0.884021,0.92767
0.596178,0.705586,0.883933,0.927577
0.59582,0.705571,0.883845,0.927485
0.595463,0.705556,0.883756,0.927392
0.595106,0.705542,0.883668,0.927299
0.594749,0.705527,0.88358,0.927206
0.594392,0.705513,0.883491,0.927114
0.594035,0.705498,0.883403,0.927021
0.593679,0.705483,0.883314,0.926928
0.593323,0.705469,0.883226,0.926836
0.592967,0.705454,0.883138,0.926743
0.592611,0.70544,0.88305,0.92665
0.592255,0.705425,0.882961,0.926558
0.5919,0.70541,0.882873,0.926465
0.591545,0.705396,0.882785,0.926372
0.59119,0.705381,0.882696,0.92628
0.590835,0.705367,0.882608,0.926187
0.590481,0.705352,0.88252,0.926094
0.590127,0.705338,0.882432,0.926002
0.589773,0.705323,0.882343,0.925909
0.589419,0.705308,0.882255,0.925817
0.589065,0.705294,0.882167,0.925724
0.588712,0.705279,0.882079,0.925631
0.588359,0.705265,0.88199,0.925539
0.588006,0.70525,0.881902,0.925446
0.587653,0.705235,0.881814,0.925354
0.5873,0.705221,0.881726,0.925261
0.586948,0.705206,0.881638,0.925169
0.586596,0.705192,0.88155,0.925076
0.586244,0.705177,0.881461,0.924984
0.585892,0.705162,0.881373,0.924891
0.585541,0.705148,0.881285,0.924799
0.585189,0.705133,0.881197,0.924706
0.584838,0.705119,0.881109,0.924614
0.58478,0.705104,0.881021,0.924521
0.584721,0.705089,0.907361,0.924429
0.58437,0.705075,0.90727,0.924336
0.58402,0.70506,0.907179,0.924244
0.583669,0.705046,0.907088,0.924151
0.583319,0.705031,0.906998,0.924059
0.582969,0.705017,0.906907,0.923967
0.58262,0.705002,0.906816,0.923874
0.58227,0.704987,0.906726,0.923782
0.581921,0.704973,0.906635,0.923689
0.581572,0.704958,0.906544,0.923597
0.581223,0.704944,0.906454,0.923505
0.580874,0.704929,0.906363,0.923412
0.580525,0.704914,0.906272,0.92332
0.580177,0.7049,0.906182,0.923228
0.579829,0.704885,0.906091,0.923135
0.579481,0.704871,0.906001,0.923043
0.579134,0.704856,0.90591,0.922951
0.578786,0.704842,0.905819,0.922859
0.578439,0.704827,0.905729,0.922766
0.578092,0.704812,0.905638,0.922674
0.577745,0.704798,0.905548,0.922582
0.577398,0.704783,0.905457,0.922489
0.577052,0.704769,0.905367,0.922397
0.576706,0.704754,0.905276,0.922305
0.576648,0.704739,0.905185,0.922213
0.57659,0.704725,0.932248,0.92212
0.576245,0.70471,0.932155,0.922028
0.575899,0.704696,0.932061,0.921936
0.575553,0.704681,0.931968,0.921844
0.575208,0.704667,0.931875,0.921752
0.574863,0.704652,0.931782,0.92166
0.574518,0.704637,0.931689,0.921567
0.574173,0.704623,0.931595,0.921475
0.573829,0.704608,0.931502,0.921383
0.573485,0.704594,0.931409,0.921291
0.573141,0.704579,0.931316,0.921199
0.572797,0.704565,0.931223,0.921107
0.572453,0.70455,0.93113,0.921015
0.57211,0.704535,0.931037,0.920922
0.571766,0.704521,0.930943,0.92083
0.571423,0.704506,0.93085,0.920738
0.571081,0.704492,0.930757,0.920646
0.570738,0.704477,0.930664,0.920554
0.570395,0.704462,0.930571,0.920462
0.570053,0.704448,0.930478,0.92037
0.569996,0.704433,0.930385,0.920278
0.569939,0.704419,0.958201,0.920186
0.569597,0.704404,0.958105,0.920094
0.569256,0.70439,0.958009,0.920002
0.568914,0.704375,0.957913,0.91991
0.568573,0.70436,0.957818,0.919818
0.568232,0.704346,0.957722,0.919726
0.567891,0.704331,0.957626,0.919634
0.56755,0.704317,0.95753,0.919542
0.56721,0.704302,0.957434,0.91945
0.566869,0.704288,0.957339,0.919358
0.566529,0.704273,0.957243,0.919266
0.566189,0.704258,0.957147,0.919174
0.56585,0.704244,0.957052,0.919082
0.56551,0.704229,0.956956,0.91899
0.565171,0.704215,0.95686,0.918899
0.564832,0.7042,0.956764,0.918807
0.564493,0.704186,0.956669,0.918715
0.564154,0.704171,0.956573,0.918623
0.563816,0.704156,0.956477,0.918531
0.563477,0.704142,0.956382,0.918439
0.563139,0.704127,0.956286,0.918347
0.562802,0.704113,0.956191,0.918255
0.562464,0.704098,0.956095,0.918164
0.562126,0.704084,0.955999,0.918072
0.561789,0.704069,0.955904,0.91798
0.561733,0.704055,0.955808,0.917888
0.561677,0.70404,0.984384,0.917796
0.56134,0.704025,0.984286,0.917705
0.561003,0.704011,0.984187,0.917613
0.560667,0.703996,0.984089,0.917521
0.56033,0.703982,0.98399,0.917429
0.559994,0.703967,0.983892,0.917338
0.559658,0.703953,0.983793,0.917246
0.559322,0.703938,0.983695,0.917154
0.558987,0.703923,0.983597,0.917062
0.558651,0.703909,0.983498,0.916971
0.558316,0.703894,0.9834,0.916879
0.557981,0.70388,0.983302,0.916787
0.557646,0.703865,0.983203,0.916696
0.557312,0.703851,0.983105,0.916604
0.556977,0.703836,0.983007,0.916512
0.556643,0.703821,0.982908,0.916421
0.556309,0.703807,0.98281,0.916329
0.555976,0.703792,0.982712,0.916237
0.555642,0.703778,0.982614,0.916146
0.555309,0.703763,0.982515,0.916054
0.554976,0.703749,0.982417,0.915963
0.554643,0.703734,0.982319,0.915871
0.55431,0.70372,0.982221,0.915779
0.553977,0.703705,0.982122,0.915688
0.553645,0.70369,0.982024,0.915596
0.553313,0.703676,0.981926,0.915505
0.552981,0.703661,0.981828,0.915413
0.552649,0.703647,0.98173,0.915322
0.552317,0.703632,0.981631,0.91523
0.551986,0.703618,0.981533,0.915139
0.551655,0.703603,0.981435,0.915047
0.551324,0.703589,0.981337,0.914956
0.550993,0.703574,0.981239,0.914864
0.550663,0.703559,0.981141,0.914773
0.550332,0.703545,0.981043,0.914681
0.550002,0.70353,0.980944,0.91459
0.549672,0.703516,0.980846,0.914498
0.549342,0.703501,0.980748,0.914407
0.549013,0.703487,0.98065,0.914315
0.548683,0.703472,0.980552,0.914224
0.548354,0.703458,0.980454,0.914132
0.548025,0.703443,0.980356,0.914041
0.547696,0.703428,0.980258,0.91395
0.547368,0.703414,0.98016,0.913858
0.547039,0.703399,0.980062,0.913767
0.546711,0.703385,0.979964,0.913675
0.546383,0.70337,0.979866,0.913584
0.546055,0.703356,0.979768,0.913493
0.545728,0.703341,0.97967,0.913401
0.5454,0.703327,0.979572,0.91331
0.545073,0.703312,0.979474,0.913219
0.544746,0.703297,0.979376,0.913127
0.544419,0.703283,0.979278,0.913036
0.544093,0.703268,0.97918,0.912945
0.543766,0.703254,0.979082,0.912853
0.54344,0.703239,0.978984,0.912762
0.543114,0.703225,0.978887,0.912671
0.542788,0.70321,0.978789,0.91258
0.542463,0.703196,0.978691,0.912488
0.542137,0.703181,0.978593,0.912397
0.541812,0.703167,0.978495,0.912306
0.541487,0.703152,0.978397,0.912215
0.541162,0.703137,0.978299,0.912123
0.540837,0.703123,0.978202,0.912032
0.540513,0.703108,0.978104,0.911941
0.540459,0.703094,0.978006,0.91185
0.540405,0.703079,1,0.911759
0.54008,0.703065,0.9999,0.911667
0.539756,0.70305,0.9998,0.911576
0.539433,0.703036,0.9997,0.911485
0.539109,0.703021,0.9996,0.911394
0.538786,0.703007,0.9995,0.911303
0.538462,0.702992,0.9994,0.911212
0.538139,0.702977,0.9993,0.911121
0.537816,0.702963,0.9992,0.911029
0.537494,0.702948,0.9991,0.910938
0.537171,0.702934,0.999,0.910847
0.536849,0.702919,0.998901,0.910756
0.536527,0.702905,0.998801,0.910665
0.536205,0.70289,0.998701,0.910574
0.535883,0.702876,0.998601,0.910483
0.535562,0.702861,0.998501,0.910392
0.535241,0.702847,0.998401,0.910301
0.534919,0.702832,0.998301,0.91021
0.534598,0.702817,0.998202,0.910119
0.534278,0.702803,0.998102,0.910028
0.533957,0.702788,0.998002,0.909937
0.533637,0.702774,0.997902,0.909846
0.533317,0.702759,0.997802,0.909755
0.532997,0.702745,0.997703,0.909664
0.532677,0.70273,0.997603,0.909573
0.532357,0.702716,0.997503,0.909482
0.532038,0.702701,0.997403,0.909391
0.531719,0.702687,0.997304,0.9093
0.5314,0.702672,0.997204,0.909209
0.531081,0.702658,0.997104,0.909118
0.530762,0.702643,0.997004,0.909027
0.530444,0.702628,0.996905,0.908936
0.530126,0.702614,0.996805,0.908846
0.529808,0.702599,0.996705,0.908755
0.52949,0.702585,0.996606,0.908664
0.529172,0.70257,0.996506,0.908573
0.528855,0.702556,0.996406,0.908482
0.528537,0.702541,0.996307,0.908391
0.52822,0.702527,0.996207,0.9083
0.527903,0.702512,0.996107,0.90821
0.527587,0.702498,0.996008,0.908119
0.52727,0.702483,0.995908,0.908028
0.526954,0.702469,0.995809,0.907937
0.526638,0.702454,0.995709,0.907846
0.526322,0.70244,0.995609,0.907756
0.526006,0.702425,0.99551,0.907665
0.52569,0.70241,0.99541,0.907574
0.525375,0.702396,0.995311,0.907483
0.52506,0.702381,0.995211,0.907392
0.524745,0.702367,0.995112,0.907302
0.52443,0.702352,0.995012,0.907211
0.524115,0.702338,0.994913,0.90712
0.523801,0.702323,0.994813,0.90703
0.523487,0.702309,0.994714,0.906939
0.523173,0.702294,0.994614,0.906848
0.522859,0.70228,0.994515,0.906757
0.522545,0.702265,0.994415,0.906667
0.522231,0.702251,0.994316,0.906576
0.521918,0.702236,0.994216,0.906485
0.521605,0.702222,0.994117,0.906395
0.521292,0.702207,0.994018,0.906304
0.520979,0.702192,0.993918,0.906214
0.520667,0.702178,0.993819,0.906123
0.520354,0.702163,0.993719,0.906032
0.520302,0.702149,0.99362,0.905942
0.52025,0.702134,1,0.905851
0.519938,0.70212,0.9999,0.905761
0.519626,0.702105,0.9998,0.90567
0.519315,0.702091,0.9997,0.905579
0.519003,0.702076,0.9996,0.905489
0.518692,0.702062,0.9995,0.905398
0.51838,0.702047,0.9994,0.905308
0.518069,0.702033,0.9993,0.905217
0.517759,0.702018,0.9992,0.905127
0.517448,0.702004,0.9991,0.905036
0.517138,0.701989,0.999,0.904946
0.516827,0.701975,0.998901,0.904855
0.516517,0.70196,0.998801,0.904765
0.516207,0.701946,0.998701,0.904674
0.516156,0.701931,0.998601,0.904584
0.516104,0.701917,1,0.904493
0.515794,0.701902,0.9999,0.904403
0.515485,0.701887,0.9998,0.904312
0.515176,0.701873,0.9997,0.904222
0.514867,0.701858,0.9996,0.904132
0.514558,0.701844,0.9995,0.904041
0.514249,0.701829,0.9994,0.903951
0.513941,0.701815,0.9993,0.90386
0.513632,0.7018,0.9992,0.90377
0.513324,0.701786,0.9991,0.90368
0.513016,0.701771,0.999,0.903589
0.512708,0.701757,0.998901,0.903499
0.512401,0.701742,0.998801,0.903409
0.512093,0.701728,0.998701,0.903318
0.511786,0.701713,0.998601,0.903228
0.511479,0.701699,0.998501,0.903138
0.511172,0.701684,0.998401,0.903047
0.510865,0.70167,0.998301,0.902957
0.510559,0.701655,0.998202,0.902867
0.510253,0.701641,0.998102,0.902776
0.509946,0.701626,0.998002,0.902686
0.509641,0.701612,0.997902,0.902596
0.50959,0.701597,0.997802,0.902506
0.509539,0.701583,1,0.902415
0.509233,0.701568,0.9999,0.902325
0.508927,0.701554,0.9998,0.902235
0.508622,0.701539,0.9997,0.902145
0.508317,0.701525,0.9996,0.902054
0.508012,0.70151,0.9995,0.901964
0.507707,0.701496,0.9994,0.901874
0.507403,0.701481,0.9993,0.901784
0.507098,0.701466,0.9992,0.901694
0.506794,0.701452,0.9991,0.901603
0.50649,0.701437,0.999,0.901513
0.506186,0.701423,0.998901,0.901423
0.505882,0.701408,0.998801,0.901333
0.505579,0.701394,0.998701,0.901243
0.505276,0.701379,0.998601,0.901153
0.504972,0.701365,0.998501,0.901063
0.504669,0.70135,0.998401,0.900972
0.504367,0.701336,0.998301,0.900882
0.504064,0.701321,0.998202,0.900792
0.503762,0.701307,0.998102,0.900702
0.503459,0.701292,0.998002,0.900612
0.503157,0.701278,0.997902,0.900522
0.502855,0.701263,0.997802,0.900432
0.502554,0.701249,0.997703,0.900342
0.502252,0.701234,0.997603,0.900252
0.501951,0.70122,0.997503,0.900162
0.50165,0.701205,0.997403,0.900072
0.501349,0.701191,0.997304,0.899982
0.501048,0.701176,0.997204,0.899892
0.500747,0.701162,0.997104,0.899802
0.500447,0.701147,0.997004,0.899712
0.500147,0.701133,0.996905,0.899622
0.499847,0.701118,0.996805,0.899532
0.499547,0.701104,0.996705,0.899442
0.499247,0.701089,0.996606,0.899352
0.498948,0.701075,0.996506,0.899262
0.498648,0.70106,0.996406,0.899172
0.498349,0.701046,0.996307,0.899082
0.49805,0.701031,0.996207,0.898992
0.497751,0.701017,0.996107,0.898903
0.497453,0.701002,0.996008,0.898813
0.497403,0.700988,0.995908,0.898723
0.497353,0.700973,1,0.898633
0.497055,0.700959,0.9999,0.898543
0.496757,0.700944,0.9998,0.898453
0.496459,0.70093,0.9997,0.898363
0.496161,0.700915,0.9996,0.898273
0.495863,0.700901,0.9995,0.898184
0.495566,0.700886,0.9994,0.898094
0.495268,0.700872,0.9993,0.898004
0.494971,0.700857,0.9992,0.897914
0.494674,0.700843,0.9991,0.897824
0.494377,0.700828,0.999,0.897735
0.494081,0.700814,0.998901,0.897645
0.493784,0.700799,0.998801,0.897555
0.493488,0.700785,0.998701,0.897465
0.493192,0.70077,0.998601,0.897376
0.492896,0.700756,0.998501,0.897286
0.4926,0.700741,0.998401,0.897196
0.492305,0.700727,0.998301,0.897106
0.49201,0.700712,0.998202,0.897017
0.491714,0.700698,0.998102,0.896927
0.491419,0.700683,0.998002,0.896837
0.491125,0.700669,0.997902,0.896748
0.49083,0.700654,0.997802,0.896658
0.490535,0.70064,0.997703,0.896568
0.490241,0.700625,0.997603,0.896479
0.489947,0.700611,0.997503,0.896389
0.489653,0.700596,0.997403,0.896299
0.489359,0.700582,0.997304,0.89621
0.48931,0.700567,0.997204,0.89612
0.489261,0.700553,1,0.89603
0.488968,0.700538,0.9999,0.895941
0.488675,0.700524,0.9998,0.895851
0.488381,0.700509,0.9997,0.895762
0.488088,0.700495,0.9996,0.895672
0.487796,0.70048,0.9995,0.895583
0.487503,0.700466,0.9994,0.895493
0.48721,0.700451,0.9993,0.895403
0.486918,0.700437,0.9992,0.895314
0.486626,0.700422,0.9991,0.895224
0.486334,0.700408,0.999,0.895135
0.486042,0.700393,0.998901,0.895045
0.485751,0.700379,0.998801,0.894956
0.485459,0.700364,0.998701,0.894866
0.485168,0.70035,0.998601,0.894777
0.484877,0.700335,0.998501,0.894687
0.484586,0.700321,0.998401,0.894598
0.484295,0.700306,0.998301,0.894508
0.484005,0.700292,0.998202,0.894419
0.483714,0.700277,0.998102,0.89433
0.483666,0.700263,0.998002,0.89424
0.483618,0.700248,1,0.894151
0.483327,0.700234,0.9999,0.894061
0.483037,0.700219,0.9998,0.893972
0.482748,0.700205,0.9997,0.893882
0.482458,0.700191,0.9996,0.893793
0.482169,0.700176,0.9995,0.893704
0.481879,0.700162,0.9994,0.893614
0.48159,0.700147,0.9993,0.893525
0.481301,0.700133,0.9992,0.893436
0.481013,0.700118,0.9991,0.893346
0.480724,0.700104,0.999,0.893257
0.480436,0.700089,0.998901,0.893168
0.480147,0.700075,0.998801,0.893078
0.479859,0.70006,0.998701,0.892989
0.479571,0.700046,0.998601,0.8929
0.479284,0.700031,0.998501,0.89281
0.478996,0.700017,0.998401,0.892721
0.478709,0.700002,0.998301,0.892632
0.478421,0.699988,0.998202,0.892543
0.478134,0.699973,0.998102,0.892453
0.477848,0.699959,0.998002,0.892364
0.477561,0.699944,0.997902,0.892275
0.477274,0.69993,0.997802,0.892186
0.476988,0.699915,0.997703,0.892096
0.476702,0.699901,0.997603,0.892007
0.476416,0.699886,0.997503,0.891918
0.476368,0.699872,0.997403,0.891829
0.476321,0.699857,1,0.89174
0.476035,0.699843,0.9999,0.89165
0.475749,0.699828,0.9998,0.891561
0.475464,0.699814,0.9997,0.891472
0.475179,0.699799,0.9996,0.891383
0.474893,0.699785,0.9995,0.891294
0.474609,0.699771,0.9994,0.891205
0.474324,0.699756,0.9993,0.891116
0.474039,0.699742,0.9992,0.891026
0.473755,0.699727,0.9991,0.890937
0.473471,0.699713,0.999,0.890848
0.473187,0.699698,0.998901,0.890759
0.472903,0.699684,0.998801,0.89067
0.472619,0.699669,0.998701,0.890581
0.472335,0.699655,0.998601,0.890492
0.472052,0.69964,0.998501,0.890403
0.472005,0.699626,0.998401,0.890314
0.471958,0.699611,1,0.890225
0.471674,0.699597,0.9999,0.890136
0.471392,0.699582,0.9998,0.890047
0.471109,0.699568,0.9997,0.889958
0.470826,0.699553,0.9996,0.889869
0.470544,0.699539,0.9995,0.88978
0.470261,0.699524,0.9994,0.889691
0.469979,0.69951,0.9993,0.889602
0.469697,0.699496,0.9992,0.889513
0.469415,0.699481,0.9991,0.889424
0.469134,0.699467,0.999,0.889335
0.468852,0.699452,0.998901,0.889246
0.468571,0.699438,0.998801,0.889157
0.46829,0.699423,0.998701,0.889068
0.468009,0.699409,0.998601,0.888979
0.467728,0.699394,0.998501,0.88889
0.467448,0.69938,0.998401,0.888802
0.467167,0.699365,0.998301,0.888713
0.466887,0.699351,0.998202,0.888624
0.466607,0.699336,0.998102,0.888535
0.466327,0.699322,0.998002,0.888446
0.466047,0.699307,0.997902,0.888357
0.465767,0.699293,0.997802,0.888268
0.465488,0.699278,0.997703,0.88818
0.465209,0.699264,0.997603,0.888091
0.46493,0.69925,0.997503,0.888002
0.464651,0.699235,0.997403,0.887913
0.464372,0.699221,0.997304,0.887824
0.464093,0.699206,0.997204,0.887736
0.463815,0.699192,0.997104,0.887647
0.463537,0.699177,0.997004,0.887558
0.463258,0.699163,0.996905,0.887469
0.462981,0.699148,0.996805,0.887381
0.462703,0.699134,0.996705,0.887292
0.462425,0.699119,0.996606,0.887203
0.462148,0.699105,0.996506,0.887114
0.461871,0.69909,0.996406,0.887026
0.461593,0.699076,0.996307,0.886937
0.461316,0.699061,0.996207,0.886848
0.46104,0.699047,0.996107,0.88676
0.460763,0.699033,0.996008,0.886671
0.460487,0.699018,0.995908,0.886582
0.46021,0.699004,0.995809,0.886494
0.459934,0.698989,0.995709,0.886405
0.459658,0.698975,0.995609,0.886316
0.459383,0.69896,0.99551,0.886228
0.459337,0.698946,0.99541,0.886139
0.459291,0.698931,1,0.88605
0.459015,0.698917,0.9999,0.885962
0.45874,0.698902,0.9998,0.885873
0.458465,0.698888,0.9997,0.885785
0.45819,0.698874,0.9996,0.885696
0.457915,0.698859,0.9995,0.885608
0.45764,0.698845,0.9994,0.885519
0.457365,0.69883,0.9993,0.88543
0.457091,0.698816,0.9992,0.885342
0.456817,0.698801,0.9991,0.885253
0.456543,0.698787,0.999,0.885165
0.456269,0.698772,0.998901,0.885076
0.455995,0.698758,0.998801,0.884988
0.455721,0.698743,0.998701,0.884899
0.455448,0.698729,0.998601,0.884811
0.455175,0.698714,0.998501,0.884722
0.454902,0.6987,0.998401,0.884634
0.454629,0.698686,0.998301,0.884545
0.454356,0.698671,0.998202,0.884457
0.454083,0.698657,0.998102,0.884368
0.453811,0.698642,0.998002,0.88428
0.453539,0.698628,0.997902,0.884192
0.453267,0.698613,0.997802,0.884103
0.452995,0.698599,0.997703,0.884015
0.452723,0.698584,0.997603,0.883926
0.452451,0.69857,0.997503,0.883838
0.45218,0.698555,0.997403,0.88375
0.452135,0.698541,0.997304,0.883661
0.452089,0.698527,1,0.883573
0.451818,0.698512,0.9999,0.883484
0.451547,0.698498,0.9998,0.883396
0.451276,0.698483,0.9997,0.883308
0.451005,0.698469,0.9996,0.883219
0.450735,0.698454,0.9995,0.883131
0.450464,0.69844,0.9994,0.883043
0.450194,0.698425,0.9993,0.882955
0.449924,0.698411,0.9992,0.882866
0.449654,0.698397,0.9991,0.882778
0.449384,0.698382,0.999,0.88269
0.449115,0.698368,0.998901,0.882601
0.448845,0.698353,0.998801,0.882513
0.448576,0.698339,0.998701,0.882425
0.448307,0.698324,0.998601,0.882337
0.448038,0.69831,0.998501,0.882248
0.447769,0.698295,0.998401,0.88216
0.447501,0.698281,0.998301,0.882072
0.447232,0.698266,0.998202,0.881984
0.446964,0.698252,0.998102,0.881896
0.446696,0.698238,0.998002,0.881807
0.446428,0.698223,0.997902,0.881719
0.44616,0.698209,0.997802,0.881631
0.446115,0.698194,0.997703,0.881543
0.446071,0.69818,1,0.881455
0.445803,0.698165,0.9999,0.881367
0.445535,0.698151,0.9998,0.881278
0.445268,0.698136,0.9997,0.88119
0.445001,0.698122,0.9996,0.881102
0.444734,0.698108,0.9995,0.881014
0.444467,0.698093,0.9994,0.880926
