energy,productivity,fun,hunger
0.816888,0.904559,0.715963,0.84771
0.816807,0.904521,0.715891,0.847625
0.816725,0.904483,0.715819,0.847541
0.816643,0.904444,0.715748,0.847456
0.816562,0.904406,0.715676,0.847371
0.81648,0.904368,0.715605,0.847286
0.816398,0.90433,0.715533,0.847202
0.816317,0.904292,0.715462,0.847117
0.816235,0.904253,0.71539,0.847032
0.816153,0.904215,0.715319,0.846947
0.816072,0.904177,0.715247,0.846863
0.81599,0.904139,0.715175,0.846778
0.815909,0.904101,0.715104,0.846693
0.815827,0.904062,0.715032,0.846609
0.815745,0.904024,0.714961,0.846524
0.815664,0.903986,0.714889,0.846439
0.815582,0.903948,0.714818,0.846355
0.815501,0.90391,0.714746,0.84627
0.815419,0.903871,0.714675,0.846185
0.815338,0.903833,0.714604,0.846101
0.815256,0.903795,0.714532,0.846016
0.815175,0.903757,0.714461,0.845932
0.815093,0.903719,0.714389,0.845847
0.815012,0.90368,0.714318,0.845762
0.81493,0.903642,0.714246,0.845678
0.814849,0.903604,0.714175,0.845593
0.814767,0.903566,0.714103,0.845509
0.814686,0.903528,0.714032,0.845424
0.814604,0.903489,0.713961,0.84534
0.814523,0.903451,0.713889,0.845255
0.814441,0.903413,0.713818,0.845171
0.81436,0.903375,0.713747,0.845086
0.814278,0.903337,0.713675,0.845002
0.814197,0.903299,0.713604,0.844917
0.814116,0.90326,0.713532,0.844833
0.814034,0.903222,0.713461,0.844748
0.813953,0.903184,0.71339,0.844664
0.813871,0.903146,0.713318,0.844579
0.81379,0.903108,0.713247,0.844495
0.813709,0.90307,0.713176,0.84441
0.813627,0.903031,0.713104,0.844326
0.813546,0.902993,0.713033,0.844241
0.813464,0.902955,0.712962,0.844157
0.813383,0.902917,0.71289,0.844073
0.813302,0.902879,0.712819,0.843988
0.81322,0.902841,0.712748,0.843904
0.813139,0.902802,0.712677,0.843819
0.813058,0.902764,0.712605,0.843735
0.812976,0.902726,0.712534,0.843651
0.812895,0.902688,0.712463,0.843566
0.812814,0.90265,0.712392,0.843482
0.812733,0.902612,0.71232,0.843398
0.812651,0.902574,0.712249,0.843313
0.81257,0.902535,0.712178,0.843229
0.812489,0.902497,0.712107,0.843145
0.812408,0.902459,0.712035,0.84306
0.812326,0.902421,0.711964,0.842976
0.812245,0.902383,0.711893,0.842892
0.812164,0.902345,0.711822,0.842807
0.812083,0.902307,0.711751,0.842723
0.812001,0.902268,0.71168,0.842639
0.81192,0.90223,0.711608,0.842555
0.811839,0.902192,0.711537,0.84247
0.811758,0.902154,0.711466,0.842386
0.811677,0.902116,0.711395,0.842302
0.811596,0.902078,0.711324,0.842218
0.811514,0.90204,0.711253,0.842133
0.811433,0.902002,0.711182,0.842049
0.811352,0.901963,0.71111,0.841965
0.811271,0.901925,0.711039,0.841881
0.81119,0.901887,0.710968,0.841797
0.811109,0.901849,0.710897,0.841712
0.811028,0.901811,0.710826,0.841628
0.810946,0.901773,0.710755,0.841544
0.810865,0.901735,0.710684,0.84146
0.810784,0.901697,0.710613,0.841376
0.810703,0.901659,0.710542,0.841292
0.810622,0.90162,0.710471,0.841207
0.810541,0.901582,0.7104,0.841123
0.81046,0.901544,0.710329,0.841039
0.810379,0.901506,0.710258,0.840955
0.810298,0.901468,0.710186,0.840871
0.810217,0.90143,0.710115,0.840787
0.810136,0.901392,0.710044,0.840703
0.810055,0.901354,0.709973,0.840619
0.809974,0.901316,0.709902,0.840535
0.809893,0.901278,0.709831,0.840451
0.809812,0.90124,0.70976,0.840367
0.809731,0.901201,0.70969,0.840283
0.80965,0.901163,0.709619,0.840199
0.809569,0.901125,0.709548,0.840115
0.809488,0.901087,0.709477,0.840031
0.809407,0.901049,0.709406,0.839947
0.809326,0.901011,0.709335,0.839863
0.809245,0.900973,0.709264,0.839779
0.809164,0.900935,0.709193,0.839695
0.809083,0.900897,0.709122,0.839611
0.809002,0.900859,0.709051,0.839527
0.808922,0.900821,0.70898,0.839443
0.808841,0.900783,0.708909,0.839359
0.80876,0.900745,0.708838,0.839275
0.808679,0.900706,0.708767,0.839191
0.808598,0.900668,0.708697,0.839107
0.808517,0.90063,0.708626,0.839023
0.808436,0.900592,0.708555,0.838939
0.808355,0.900554,0.708484,0.838855
0.808275,0.900516,0.708413,0.838771
0.808194,0.900478,0.708342,0.838687
0.808113,0.90044,0.708271,0.838604
0.808032,0.900402,0.708201,0.83852
0.807951,0.900364,0.70813,0.838436
0.807871,0.900326,0.708059,0.838352
0.80779,0.900288,0.707988,0.838268
0.807709,0.90025,0.707917,0.838184
0.807628,0.900212,0.707847,0.838101
0.807547,0.900174,0.707776,0.838017
0.807467,0.900136,0.707705,0.837933
0.807386,0.900098,0.707634,0.837849
0.807305,0.90006,0.707564,0.837765
0.807225,0.900022,0.707493,0.837682
0.807144,0.899984,0.707422,0.837598
0.807063,0.899946,0.707351,0.837514
0.806982,0.899907,0.707281,0.83743
0.806902,0.899869,0.70721,0.837347
0.806821,0.899831,0.707139,0.837263
0.80674,0.899793,0.707068,0.837179
0.80666,0.899755,0.706998,0.837095
0.806579,0.899717,0.706927,0.837012
0.806498,0.899679,0.706856,0.836928
0.806418,0.899641,0.706786,0.836844
0.806337,0.899603,0.706715,0.836761
0.806256,0.899565,0.706644,0.836677
0.806176,0.899527,0.706574,0.836593
0.806095,0.899489,0.706503,0.83651
0.806015,0.899451,0.706432,0.836426
0.805934,0.899413,0.706362,0.836342
0.805853,0.899375,0.706291,0.836259
0.805773,0.899337,0.70622,0.836175
0.805692,0.899299,0.70615,0.836091
0.805612,0.899261,0.706079,0.836008
0.805531,0.899223,0.706009,0.835924
0.80545,0.899185,0.705938,0.835841
0.80537,0.899147,0.705867,0.835757
0.805289,0.899109,0.705797,0.835673
0.805209,0.899071,0.705726,0.83559
0.805128,0.899033,0.705656,0.835506
0.805048,0.898995,0.705585,0.835423
0.804967,0.898957,0.705514,0.835339
0.804887,0.898919,0.705444,0.835256
0.804806,0.898881,0.705373,0.835172
0.804726,0.898843,0.705303,0.835089
0.804645,0.898805,0.705232,0.835005
0.804565,0.898767,0.705162,0.834922
0.804484,0.898729,0.705091,0.834838
0.804404,0.898691,0.705021,0.834755
0.804324,0.898653,0.70495,0.834671
0.804243,0.898615,0.70488,0.834588
0.804163,0.898577,0.704809,0.834504
0.804082,0.898539,0.704739,0.834421
0.804002,0.898501,0.704668,0.834337
0.803922,0.898463,0.704598,0.834254
0.803841,0.898426,0.704527,0.834171
0.803761,0.898388,0.704457,0.834087
0.80368,0.89835,0.704386,0.834004
0.8036,0.898312,0.704316,0.83392
0.80352,0.898274,0.704246,0.833837
0.803439,0.898236,0.704175,0.833754
0.803359,0.898198,0.704105,0.83367
0.803279,0.89816,0.704034,0.833587
0.803198,0.898122,0.703964,0.833503
0.803118,0.898084,0.703894,0.83342
0.803038,0.898046,0.703823,0.833337
0.802957,0.898008,0.703753,0.833253
0.802877,0.89797,0.703682,0.83317
0.802797,0.897932,0.703612,0.833087
0.802716,0.897894,0.703542,0.833003
0.802636,0.897856,0.703471,0.83292
0.802556,0.897818,0.703401,0.832837
0.802476,0.89778,0.703331,0.832754
0.802395,0.897742,0.70326,0.83267
0.802315,0.897704,0.70319,0.832587
0.802235,0.897666,0.70312,0.832504
0.802155,0.897629,0.703049,0.832421
0.802075,0.897591,0.702979,0.832337
0.801994,0.897553,0.702909,0.832254
0.801914,0.897515,0.702838,0.832171
0.801834,0.897477,0.702768,0.832088
0.801754,0.897439,0.702698,0.832004
0.801674,0.897401,0.702628,0.831921
0.801593,0.897363,0.702557,0.831838
0.801513,0.897325,0.702487,0.831755
0.801433,0.897287,0.702417,0.831672
0.801353,0.897249,0.702347,0.831588
0.801273,0.897211,0.702276,0.831505
0.801193,0.897173,0.702206,0.831422
0.801113,0.897136,0.702136,0.831339
0.801032,0.897098,0.702066,0.831256
0.800952,0.89706,0.701996,0.831173
0.800872,0.897022,0.701925,0.83109
0.800792,0.896984,0.701855,0.831007
0.800712,0.896946,0.701785,0.830923
0.800632,0.896908,0.701715,0.83084
0.800552,0.89687,0.701645,0.830757
0.800472,0.896832,0.701574,0.830674
0.800392,0.896794,0.701504,0.830591
0.800312,0.896756,0.701434,0.830508
0.800232,0.896719,0.701364,0.830425
0.800152,0.896681,0.701294,0.830342
0.800072,0.896643,0.701224,0.830259
0.799992,0.896605,0.701154,0.830176
0.799912,0.896567,0.701083,0.830093
0.799832,0.896529,0.701013,0.83001
0.799752,0.896491,0.700943,0.829927
0.799672,0.896453,0.700873,0.829844
0.799592,0.896415,0.700803,0.829761
0.799512,0.896378,0.700733,0.829678
0.799432,0.89634,0.700663,0.829595
0.799352,0.896302,0.700593,0.829512
0.799272,0.896264,0.700523,0.829429
0.799192,0.896226,0.700453,0.829346
0.799112,0.896188,0.700383,0.829263
0.799032,0.89615,0.700313,0.82918
0.798952,0.896112,0.700243,0.829097
0.798872,0.896075,0.700173,0.829014
0.798793,0.896037,0.700103,0.828932
0.798713,0.895999,0.700033,0.828849
0.798633,0.895961,0.699963,0.828766
0.798553,0.895923,0.699893,0.828683
0.798473,0.895885,0.699823,0.8286
0.798393,0.895847,0.699753,0.828517
0.798313,0.89581,0.699683,0.828434
0.798234,0.895772,0.699613,0.828351
0.798154,0.895734,0.699543,0.828269
0.798074,0.895696,0.699473,0.828186
0.797994,0.895658,0.699403,0.828103
0.797914,0.89562,0.699333,0.82802
0.797835,0.895582,0.699263,0.827937
0.797755,0.895545,0.699193,0.827855
0.797675,0.895507,0.699123,0.827772
0.797595,0.895469,0.699053,0.827689
0.797515,0.895431,0.698983,0.827606
0.797436,0.895393,0.698913,0.827523
0.797356,0.895355,0.698843,0.827441
0.797276,0.895318,0.698774,0.827358
0.797197,0.89528,0.698704,0.827275
0.797117,0.895242,0.698634,0.827193
0.797037,0.895204,0.698564,0.82711
0.796957,0.895166,0.698494,0.827027
0.796878,0.895128,0.698424,0.826944
0.796798,0.895091,0.698354,0.826862
0.796718,0.895053,0.698285,0.826779
0.796639,0.895015,0.698215,0.826696
0.796559,0.894977,0.698145,0.826614
0.796479,0.894939,0.698075,0.826531
0.7964,0.894901,0.698005,0.826448
0.79632,0.894864,0.697936,0.826366
0.79624,0.894826,0.697866,0.826283
0.796161,0.894788,0.697796,0.8262
0.796081,0.89475,0.697726,0.826118
0.796002,0.894712,0.697656,0.826035
0.795922,0.894675,0.697587,0.825953
0.795842,0.894637,0.697517,0.82587
0.795763,0.894599,0.697447,0.825787
0.795683,0.894561,0.697377,0.825705
0.795604,0.894523,0.697308,0.825622
0.795524,0.894486,0.697238,0.82554
0.795445,0.894448,0.697168,0.825457
0.795365,0.89441,0.697098,0.825375
0.795285,0.894372,0.697029,0.825292
0.795206,0.894334,0.696959,0.82521
0.795126,0.894297,0.696889,0.825127
0.795047,0.894259,0.69682,0.825044
0.794967,0.894221,0.69675,0.824962
0.794888,0.894183,0.69668,0.824879
0.794808,0.894145,0.696611,0.824797
0.794729,0.894108,0.696541,0.824715
0.794649,0.89407,0.696471,0.824632
0.79457,0.894032,0.696402,0.82455
0.794491,0.893994,0.696332,0.824467
0.794411,0.893956,0.696262,0.824385
0.794332,0.893919,0.696193,0.824302
0.794252,0.893881,0.696123,0.82422
0.794173,0.893843,0.696054,0.824137
0.794093,0.893805,0.695984,0.824055
0.794014,0.893768,0.695914,0.823973
0.793935,0.89373,0.695845,0.82389
0.793855,0.893692,0.695775,0.823808
0.793776,0.893654,0.695706,0.823725
0.793696,0.893617,0.695636,0.823643
0.793617,0.893579,0.695566,0.823561
0.793538,0.893541,0.695497,0.823478
0.793458,0.893503,0.695427,0.823396
0.793379,0.893466,0.695358,0.823314
0.7933,0.893428,0.695288,0.823231
0.79322,0.89339,0.695219,0.823149
0.793141,0.893352,0.695149,0.823067
0.793062,0.893314,0.69508,0.822984
0.792982,0.893277,0.69501,0.822902
0.792903,0.893239,0.694941,0.82282
0.792824,0.893201,0.694871,0.822737
0.792744,0.893163,0.694802,0.822655
0.792665,0.893126,0.694732,0.822573
0.792586,0.893088,0.694663,0.822491
0.792507,0.89305,0.694593,0.822408
0.792427,0.893013,0.694524,0.822326
0.792348,0.892975,0.694454,0.822244
0.792269,0.892937,0.694385,0.822162
0.79219,0.892899,0.694316,0.82208
0.79211,0.892862,0.694246,0.821997
0.792031,0.892824,0.694177,0.821915
0.791952,0.892786,0.694107,0.821833
0.791873,0.892748,0.694038,0.821751
0.791794,0.892711,0.693968,0.821669
0.791715,0.892673,0.693899,0.821586
0.791635,0.892635,0.69383,0.821504
0.791556,0.892597,0.69376,0.821422
0.791477,0.89256,0.693691,0.82134
0.791398,0.892522,0.693622,0.821258
0.791319,0.892484,0.693552,0.821176
0.79124,0.892447,0.693483,0.821094
0.79116,0.892409,0.693413,0.821011
0.791081,0.892371,0.693344,0.820929
0.791002,0.892333,0.693275,0.820847
0.790923,0.892296,0.693205,0.820765
0.790844,0.892258,0.693136,0.820683
0.790765,0.89222,0.693067,0.820601
0.790686,0.892183,0.692997,0.820519
0.790607,0.892145,0.692928,0.820437
0.790528,0.892107,0.692859,0.820355
0.790449,0.89207,0.69279,0.820273
0.79037,0.892032,0.69272,0.820191
0.790291,0.891994,0.692651,0.820109
0.790212,0.891956,0.692582,0.820027
0.790133,0.891919,0.692513,0.819945
0.790054,0.891881,0.692443,0.819863
0.789975,0.891843,0.692374,0.819781
0.789896,0.891806,0.692305,0.819699
0.789817,0.891768,0.692236,0.819617
0.789738,0.89173,0.692166,0.819535
0.789659,0.891693,0.692097,0.819453
0.78958,0.891655,0.692028,0.819371
0.789501,0.891617,0.691959,0.819289
0.789422,0.89158,0.69189,0.819207
0.789343,0.891542,0.69182,0.819125
0.789264,0.891504,0.691751,0.819043
0.789185,0.891467,0.691682,0.818961
0.789106,0.891429,0.691613,0.81888
0.789027,0.891391,0.691544,0.818798
0.788948,0.891354,0.691475,0.818716
0.788869,0.891316,0.691405,0.818634
0.78879,0.891278,0.691336,0.818552
0.788712,0.891241,0.691267,0.81847
0.788633,0.891203,0.691198,0.818388
0.788554,0.891165,0.691129,0.818306
0.788475,0.891128,0.69106,0.818225
0.788396,0.89109,0.690991,0.818143
0.788317,0.891052,0.690922,0.818061
0.788238,0.891015,0.690852,0.817979
0.78816,0.890977,0.690783,0.817897
0.788081,0.890939,0.690714,0.817816
0.788002,0.890902,0.690645,0.817734
0.787923,0.890864,0.690576,0.817652
0.787844,0.890826,0.690507,0.81757
0.787766,0.890789,0.690438,0.817489
0.787687,0.890751,0.690369,0.817407
0.787608,0.890713,0.6903,0.817325
0.787529,0.890676,0.690231,0.817243
0.787451,0.890638,0.690162,0.817162
0.787372,0.8906,0.690093,0.81708
0.787293,0.890563,0.690024,0.816998
0.787214,0.890525,0.689955,0.816916
0.787136,0.890488,0.689886,0.816835
0.787057,0.89045,0.689817,0.816753
0.786978,0.890412,0.689748,0.816671
0.7869,0.890375,0.689679,0.81659
0.786821,0.890337,0.68961,0.816508
0.786742,0.890299,0.689541,0.816426
0.786663,0.890262,0.689472,0.816345
0.786585,0.890224,0.689403,0.816263
0.786506,0.890187,0.689334,0.816182
0.786427,0.890149,0.689265,0.8161
0.786349,0.890111,0.689196,0.816018
0.78627,0.890074,0.689127,0.815937
0.786192,0.890036,0.689058,0.815855
0.786113,0.889999,0.68899,0.815774
0.786034,0.889961,0.688921,0.815692
0.785956,0.889923,0.688852,0.81561
0.785877,0.889886,0.688783,0.815529
0.785799,0.889848,0.688714,0.815447
0.78572,0.88981,0.688645,0.815366
0.785641,0.889773,0.688576,0.815284
0.785563,0.889735,0.688507,0.815203
0.785484,0.889698,0.688439,0.815121
0.785406,0.88966,0.68837,0.81504
0.785327,0.889622,0.688301,0.814958
0.785249,0.889585,0.688232,0.814877
0.78517,0.889547,0.688163,0.814795
0.785092,0.88951,0.688094,0.814714
0.785013,0.889472,0.688026,0.814632
0.784935,0.889435,0.687957,0.814551
0.784856,0.889397,0.687888,0.814469
0.784778,0.889359,0.687819,0.814388
0.784699,0.889322,0.68775,0.814306
0.784621,0.889284,0.687682,0.814225
0.784542,0.889247,0.687613,0.814144
0.784464,0.889209,0.687544,0.814062
0.784385,0.889171,0.687475,0.813981
0.784307,0.889134,0.687407,0.813899
0.784228,0.889096,0.687338,0.813818
0.78415,0.889059,0.687269,0.813737
0.784072,0.889021,0.6872,0.813655
0.783993,0.888984,0.687132,0.813574
0.783915,0.888946,0.687063,0.813492
0.783836,0.888908,0.686994,0.813411
0.783758,0.888871,0.686926,0.81333
0.78368,0.888833,0.686857,0.813248
0.783601,0.888796,0.686788,0.813167
0.783523,0.888758,0.68672,0.813086
0.783445,0.888721,0.686651,0.813004
0.783366,0.888683,0.686582,0.812923
0.783288,0.888646,0.686514,0.812842
0.78321,0.888608,0.686445,0.812761
0.783131,0.88857,0.686376,0.812679
0.783053,0.888533,0.686308,0.812598
0.782975,0.888495,0.686239,0.812517
0.782896,0.888458,0.68617,0.812436
0.782818,0.88842,0.686102,0.812354
0.78274,0.888383,0.686033,0.812273
0.782661,0.888345,0.685964,0.812192
0.782583,0.888308,0.685896,0.812111
0.782505,0.88827,0.685827,0.812029
0.782427,0.888233,0.685759,0.811948
0.782348,0.888195,0.68569,0.811867
0.78227,0.888157,0.685622,0.811786
0.782192,0.88812,0.685553,0.811705
0.782114,0.888082,0.685484,0.811623
0.782036,0.888045,0.685416,0.811542
0.781957,0.888007,0.685347,0.811461
0.781879,0.88797,0.685279,0.81138
0.781801,0.887932,0.68521,0.811299
0.781723,0.887895,0.685142,0.811218
0.781645,0.887857,0.685073,0.811137
0.781566,0.88782,0.685005,0.811055
0.781488,0.887782,0.684936,0.810974
0.78141,0.887745,0.684868,0.810893
0.781332,0.887707,0.684799,0.810812
0.781254,0.88767,0.684731,0.810731
0.781176,0.887632,0.684662,0.81065
0.781098,0.887595,0.684594,0.810569
0.78102,0.887557,0.684525,0.810488
0.780941,0.88752,0.684457,0.810407
0.780863,0.887482,0.684389,0.810326
0.780785,0.887445,0.68432,0.810245
0.780707,0.887407,0.684252,0.810164
0.780629,0.88737,0.684183,0.810083
0.780551,0.887332,0.684115,0.810002
0.780473,0.887295,0.684046,0.809921
0.780395,0.887257,0.683978,0.80984
0.780317,0.88722,0.68391,0.809759
0.780239,0.887182,0.683841,0.809678
0.780161,0.887145,0.683773,0.809597
0.780083,0.887107,0.683704,0.809516
0.780005,0.88707,0.683636,0.809435
0.779927,0.887032,0.683568,0.809354
0.779849,0.886995,0.683499,0.809273
0.779771,0.886957,0.683431,0.809192
0.779693,0.88692,0.683363,0.809111
0.779615,0.886882,0.683294,0.80903
0.779537,0.886845,0.683226,0.808949
0.779459,0.886807,0.683158,0.808868
0.779381,0.88677,0.683089,0.808788
0.779303,0.886732,0.683021,0.808707
0.779225,0.886695,0.682953,0.808626
0.779147,0.886657,0.682884,0.808545
0.779069,0.88662,0.682816,0.808464
0.778991,0.886582,0.682748,0.808383
0.778914,0.886545,0.68268,0.808302
0.778836,0.886508,0.682611,0.808222
0.778758,0.88647,0.682543,0.808141
0.77868,0.886433,0.682475,0.80806
0.778602,0.886395,0.682407,0.807979
0.778524,0.886358,0.682338,0.807898
0.778446,0.88632,0.68227,0.807818
0.778368,0.886283,0.682202,0.807737
0.778291,0.886245,0.682134,0.807656
0.778213,0.886208,0.682065,0.807575
0.778135,0.88617,0.681997,0.807495
0.778057,0.886133,0.681929,0.807414
0.777979,0.886095,0.681861,0.807333
0.777902,0.886058,0.681793,0.807252
0.777824,0.886021,0.681724,0.807172
0.777746,0.885983,0.681656,0.807091
0.777668,0.885946,0.681588,0.80701
0.77759,0.885908,0.68152,0.806929
0.777513,0.885871,0.681452,0.806849
0.777435,0.885833,0.681384,0.806768
0.777357,0.885796,0.681316,0.806687
0.777279,0.885759,0.681247,0.806607
0.777202,0.885721,0.681179,0.806526
0.777124,0.885684,0.681111,0.806445
0.777046,0.885646,0.681043,0.806365
0.776969,0.885609,0.680975,0.806284
0.776891,0.885571,0.680907,0.806203
0.776813,0.885534,0.680839,0.806123
0.776736,0.885497,0.680771,0.806042
0.776658,0.885459,0.680703,0.805962
0.77658,0.885422,0.680635,0.805881
0.776503,0.885384,0.680566,0.8058
0.776425,0.885347,0.680498,0.80572
0.776347,0.885309,0.68043,0.805639
0.77627,0.885272,0.680362,0.805559
0.776192,0.885235,0.680294,0.805478
0.776114,0.885197,0.680226,0.805398
0.776037,0.88516,0.680158,0.805317
0.775959,0.885122,0.68009,0.805237
0.775882,0.885085,0.680022,0.805156
0.775804,0.885048,0.679954,0.805076
0.775726,0.88501,0.679886,0.804995
0.775649,0.884973,0.679818,0.804915
0.775571,0.884935,0.67975,0.804834
0.775494,0.884898,0.679682,0.804754
0.775416,0.884861,0.679614,0.804673
0.775339,0.884823,0.679546,0.804593
0.775261,0.884786,0.679478,0.804512
0.775184,0.884748,0.67941,0.804432
0.775106,0.884711,0.679342,0.804351
0.775028,0.884674,0.679275,0.804271
0.774951,0.884636,0.679207,0.80419
0.774873,0.884599,0.679139,0.80411
0.774796,0.884562,0.679071,0.80403
0.774719,0.884524,0.679003,0.803949
0.774641,0.884487,0.678935,0.803869
0.774564,0.884449,0.678867,0.803788
0.774486,0.884412,0.678799,0.803708
0.774409,0.884375,0.678731,0.803628
0.774331,0.884337,0.678663,0.803547
0.774254,0.8843,0.678596,0.803467
0.774176,0.884263,0.678528,0.803387
0.774099,0.884225,0.67846,0.803306
0.774022,0.884188,0.678392,0.803226
0.773944,0.88415,0.678324,0.803146
0.773867,0.884113,0.678256,0.803065
0.773789,0.884076,0.678189,0.802985
0.773712,0.884038,0.678121,0.802905
0.773635,0.884001,0.678053,0.802824
0.773557,0.883964,0.677985,0.802744
0.77348,0.883926,0.677917,0.802664
0.773403,0.883889,0.677849,0.802584
0.773325,0.883852,0.677782,0.802503
0.773248,0.883814,0.677714,0.802423
0.773171,0.883777,0.677646,0.802343
0.773093,0.883739,0.677578,0.802263
0.773016,0.883702,0.677511,0.802182
0.772939,0.883665,0.677443,0.802102
0.772861,0.883627,0.677375,0.802022
0.772784,0.88359,0.677307,0.801942
0.772707,0.883553,0.67724,0.801861
0.77263,0.883515,0.677172,0.801781
0.772552,0.883478,0.677104,0.801701
0.772475,0.883441,0.677037,0.801621
0.772398,0.883403,0.676969,0.801541
