energy,productivity,fun,hunger
0.73634,0.670561,0.577675,0.76163
0.736266,0.670505,0.594946,0.761554
0.735824,0.670448,0.612733,0.761477
0.735383,0.670391,0.631052,0.761401
0.734942,0.670334,0.649918,0.761325
0.734501,0.670277,0.669349,0.761249
0.73406,0.670221,0.689361,0.761173
0.73362,0.670164,0.70997,0.761097
0.733179,0.670107,0.731196,0.761021
0.73274,0.67005,0.731123,0.760945
0.7323,0.669994,0.73105,0.760869
0.731861,0.669937,0.730977,0.760792
0.731422,0.66988,0.730904,0.760716
0.730983,0.669823,0.730831,0.76064
0.730544,0.669767,0.730758,0.760564
0.730106,0.66971,0.730685,0.760488
0.729668,0.669653,0.730612,0.760412
0.72923,0.669596,0.730539,0.760336
0.728793,0.66954,0.730466,0.76026
0.728355,0.669483,0.730392,0.760184
0.727918,0.669426,0.730319,0.760108
0.727482,0.66937,0.730246,0.760032
0.727045,0.669313,0.730173,0.759956
0.726609,0.669256,0.7301,0.75988
0.726173,0.669199,0.730027,0.759804
0.725737,0.669143,0.729954,0.759728
0.725302,0.669086,0.729881,0.759652
0.724867,0.669029,0.729808,0.759576
0.724432,0.668973,0.729735,0.7595
0.723997,0.668916,0.729662,0.759424
0.723563,0.668859,0.729589,0.759348
0.723129,0.668803,0.729516,0.759272
0.722695,0.668746,0.729444,0.759196
0.722261,0.668689,0.729371,0.75912
0.721828,0.668633,0.729298,0.759045
0.721395,0.668576,0.729225,0.758969
0.720962,0.668519,0.729152,0.758893
0.72053,0.668463,0.729079,0.758817
0.720097,0.668406,0.729006,0.758741
0.719665,0.66835,0.728933,0.758665
0.719234,0.668293,0.72886,0.758589
0.718802,0.668236,0.728787,0.758513
0.718371,0.66818,0.728714,0.758437
0.71794,0.668123,0.728642,0.758362
0.717509,0.668067,0.728569,0.758286
0.717079,0.66801,0.728496,0.75821
0.716649,0.667953,0.728423,0.758134
0.716219,0.667897,0.72835,0.758058
0.715789,0.66784,0.728277,0.757983
0.715359,0.667784,0.728204,0.757907
0.71493,0.667727,0.728132,0.757831
0.714501,0.667671,0.728059,0.757755
0.714073,0.667614,0.727986,0.757679
0.713644,0.667557,0.727913,0.757604
0.713216,0.667501,0.72784,0.757528
0.712788,0.667444,0.727768,0.757452
0.712361,0.667388,0.727695,0.757376
0.711933,0.667331,0.727622,0.757301
0.711506,0.667275,0.727549,0.757225
0.711079,0.667218,0.727477,0.757149
0.710653,0.667162,0.727404,0.757073
0.710226,0.667105,0.727331,0.756998
0.7098,0.667049,0.727258,0.756922
0.709729,0.666992,0.727186,0.756846
0.709658,0.666936,0.727113,0.756771
0.709587,0.666879,0.72704,0.756695
0.709516,0.666823,0.726967,0.756619
0.709445,0.666766,0.726895,0.756544
0.709374,0.66671,0.726822,0.756468
0.709303,0.666653,0.726749,0.756392
0.709232,0.666597,0.726677,0.756317
0.709162,0.66654,0.726604,0.756241
0.709091,0.666484,0.726531,0.756165
0.70902,0.666427,0.726459,0.75609
0.708949,0.666371,0.726386,0.756014
0.708878,0.666314,0.726313,0.755939
0.708807,0.666258,0.726241,0.755863
0.708736,0.666202,0.726168,0.755787
0.708665,0.666145,0.726096,0.755712
0.708594,0.666089,0.726023,0.755636
0.708524,0.666032,0.72595,0.755561
0.708453,0.665976,0.725878,0.755485
0.708382,0.665919,0.725805,0.75541
0.708311,0.665863,0.725733,0.755334
0.70824,0.665807,0.72566,0.755259
0.708169,0.66575,0.725588,0.755183
0.708099,0.665694,0.725515,0.755108
0.708028,0.665637,0.725442,0.755032
0.707957,0.665581,0.72537,0.754957
0.707886,0.665525,0.725297,0.754881
0.707815,0.665468,0.725225,0.754806
0.707745,0.665412,0.725152,0.75473
0.707674,0.665356,0.72508,0.754655
0.707603,0.665299,0.725007,0.754579
0.707532,0.665243,0.724935,0.754504
0.707462,0.665186,0.724862,0.754428
0.707391,0.66513,0.72479,0.754353
0.70732,0.665074,0.724717,0.754277
0.707249,0.665017,0.724645,0.754202
0.707179,0.664961,0.724572,0.754126
0.707108,0.664905,0.7245,0.754051
0.707037,0.664848,0.724427,0.753976
0.706966,0.664792,0.724355,0.7539
0.706896,0.664736,0.724283,0.753825
0.706825,0.664679,0.72421,0.753749
0.706754,0.664623,0.724138,0.753674
0.706684,0.664567,0.724065,0.753599
0.706613,0.664511,0.723993,0.753523
0.706542,0.664454,0.72392,0.753448
0.706472,0.664398,0.723848,0.753373
0.706401,0.664342,0.723776,0.753297
0.70633,0.664285,0.723703,0.753222
0.70626,0.664229,0.723631,0.753147
0.706189,0.664173,0.723559,0.753071
0.706119,0.664117,0.723486,0.752996
0.706048,0.66406,0.723414,0.752921
0.705977,0.664004,0.723342,0.752845
0.705907,0.663948,0.723269,0.75277
0.705836,0.663892,0.723197,0.752695
0.705766,0.663835,0.723125,0.75262
0.705695,0.663779,0.723052,0.752544
0.705624,0.663723,0.72298,0.752469
0.705554,0.663667,0.722908,0.752394
0.705483,0.66361,0.722835,0.752319
0.705413,0.663554,0.722763,0.752243
0.705342,0.663498,0.722691,0.752168
0.705272,0.663442,0.722619,0.752093
0.705201,0.663386,0.722546,0.752018
0.705131,0.663329,0.722474,0.751943
0.70506,0.663273,0.722402,0.751867
0.70499,0.663217,0.72233,0.751792
0.704919,0.663161,0.722257,0.751717
0.704849,0.663105,0.722185,0.751642
0.704778,0.663049,0.722113,0.751567
0.704708,0.662992,0.722041,0.751492
0.704637,0.662936,0.721968,0.751416
0.704567,0.66288,0.721896,0.751341
0.704496,0.662824,0.721824,0.751266
0.704426,0.662768,0.721752,0.751191
0.704355,0.662712,0.72168,0.751116
0.704285,0.662655,0.721608,0.751041
0.704215,0.662599,0.721535,0.750966
0.704144,0.662543,0.721463,0.750891
0.704074,0.662487,0.721391,0.750815
0.704003,0.662431,0.721319,0.75074
0.703933,0.662375,0.721247,0.750665
0.703862,0.662319,0.721175,0.75059
0.703792,0.662263,0.721103,0.750515
0.703722,0.662207,0.72103,0.75044
0.703651,0.66215,0.720958,0.750365
0.703581,0.662094,0.720886,0.75029
0.703511,0.662038,0.720814,0.750215
0.70344,0.661982,0.720742,0.75014
0.70337,0.661926,0.72067,0.750065
0.7033,0.66187,0.720598,0.74999
0.703229,0.661814,0.720526,0.749915
0.703159,0.661758,0.720454,0.74984
0.703089,0.661702,0.720382,0.749765
0.703018,0.661646,0.72031,0.74969
0.702948,0.66159,0.720238,0.749615
0.702878,0.661534,0.720166,0.74954
0.702807,0.661478,0.720094,0.749465
0.702737,0.661422,0.720022,0.74939
0.702667,0.661366,0.71995,0.749315
0.702597,0.66131,0.719878,0.74924
0.702526,0.661254,0.719806,0.749165
0.702456,0.661198,0.719734,0.74909
0.702386,0.661142,0.719662,0.749016
0.702316,0.661085,0.71959,0.748941
0.702245,0.661029,0.719518,0.748866
0.702175,0.660973,0.719446,0.748791
0.702105,0.660918,0.719374,0.748716
0.702035,0.660862,0.719302,0.748641
0.701965,0.660806,0.71923,0.748566
0.701894,0.66075,0.719158,0.748491
0.701824,0.660694,0.719086,0.748417
0.701754,0.660638,0.719014,0.748342
0.701684,0.660582,0.718942,0.748267
0.701614,0.660526,0.71887,0.748192
0.701543,0.66047,0.718799,0.748117
0.701473,0.660414,0.718727,0.748042
0.701403,0.660358,0.718655,0.747968
0.701333,0.660302,0.718583,0.747893
0.701263,0.660246,0.718511,0.747818
0.701193,0.66019,0.718439,0.747743
0.701123,0.660134,0.718367,0.747668
0.701053,0.660078,0.718296,0.747594
0.700982,0.660022,0.718224,0.747519
0.700912,0.659966,0.718152,0.747444
0.700842,0.65991,0.71808,0.747369
0.700772,0.659855,0.718008,0.747295
0.700702,0.659799,0.717937,0.74722
0.700632,0.659743,0.717865,0.747145
0.700562,0.659687,0.717793,0.747071
0.700492,0.659631,0.717721,0.746996
0.700422,0.659575,0.717649,0.746921
0.700352,0.659519,0.717578,0.746846
0.700282,0.659463,0.717506,0.746772
0.700212,0.659408,0.717434,0.746697
0.700142,0.659352,0.717362,0.746622
0.700072,0.659296,0.717291,0.746548
0.700002,0.65924,0.717219,0.746473
0.699932,0.659184,0.717147,0.746398
0.699862,0.659128,0.717075,0.746324
0.699792,0.659072,0.717004,0.746249
0.699722,0.659017,0.716932,0.746175
0.699652,0.658961,0.71686,0.7461
0.699582,0.658905,0.716789,0.746025
0.699512,0.658849,0.716717,0.745951
0.699442,0.658793,0.716645,0.745876
0.699372,0.658738,0.716574,0.745802
0.699302,0.658682,0.716502,0.745727
0.699232,0.658626,0.71643,0.745652
0.699162,0.65857,0.716359,0.745578
0.699092,0.658514,0.716287,0.745503
0.699022,0.658459,0.716215,0.745429
0.698952,0.658403,0.716144,0.745354
0.698883,0.658347,0.716072,0.74528
0.698813,0.658291,0.716001,0.745205
0.698743,0.658235,0.715929,0.745131
0.698673,0.65818,0.715857,0.745056
0.698603,0.658124,0.715786,0.744982
0.698533,0.658068,0.715714,0.744907
0.698463,0.658012,0.715643,0.744833
0.698393,0.657957,0.715571,0.744758
0.698324,0.657901,0.7155,0.744684
0.698254,0.657845,0.715428,0.744609
0.698184,0.65779,0.715356,0.744535
0.698114,0.657734,0.715285,0.74446
0.698044,0.657678,0.715213,0.744386
0.697974,0.657622,0.715142,0.744311
0.697905,0.657567,0.71507,0.744237
0.697835,0.657511,0.714999,0.744163
0.697765,0.657455,0.714927,0.744088
0.697695,0.6574,0.714856,0.744014
0.697626,0.657344,0.714784,0.743939
0.697556,0.657288,0.714713,0.743865
0.697486,0.657233,0.714641,0.743791
0.697416,0.657177,0.71457,0.743716
0.697347,0.657121,0.714499,0.743642
0.697277,0.657065,0.714427,0.743567
0.697207,0.65701,0.714356,0.743493
0.697137,0.656954,0.714284,0.743419
0.697068,0.656899,0.714213,0.743344
0.696998,0.656843,0.714141,0.74327
0.696928,0.656787,0.71407,0.743196
0.696859,0.656732,0.713999,0.743121
0.696789,0.656676,0.713927,0.743047
0.696719,0.65662,0.713856,0.742973
0.69665,0.656565,0.713784,0.742898
0.69658,0.656509,0.713713,0.742824
0.69651,0.656453,0.713642,0.74275
0.696441,0.656398,0.71357,0.742676
0.696371,0.656342,0.713499,0.742601
0.696301,0.656287,0.713428,0.742527
0.696232,0.656231,0.713356,0.742453
0.696162,0.656175,0.713285,0.742379
0.696092,0.65612,0.713214,0.742304
0.696023,0.656064,0.713142,0.74223
0.695953,0.656009,0.713071,0.742156
0.695884,0.655953,0.713,0.742082
0.695814,0.655898,0.712928,0.742007
0.695744,0.655842,0.712857,0.741933
0.695675,0.655786,0.712786,0.741859
0.695605,0.655731,0.712714,0.741785
0.695536,0.655675,0.712643,0.741711
0.695466,0.65562,0.712572,0.741637
0.695397,0.655564,0.712501,0.741562
0.695327,0.655509,0.712429,0.741488
0.695258,0.655453,0.712358,0.741414
0.695188,0.655398,0.712287,0.74134
0.695119,0.655342,0.712216,0.741266
0.695049,0.655287,0.712144,0.741192
0.69498,0.655231,0.712073,0.741118
0.69491,0.655176,0.712002,0.741043
0.694841,0.65512,0.711931,0.740969
0.694771,0.655065,0.71186,0.740895
0.694702,0.655009,0.711788,0.740821
0.694632,0.654954,0.711717,0.740747
0.694563,0.654898,0.711646,0.740673
0.694493,0.654843,0.711575,0.740599
0.694424,0.654787,0.711504,0.740525
0.694354,0.654732,0.711433,0.740451
0.694285,0.654676,0.711361,0.740377
0.694215,0.654621,0.71129,0.740303
0.694146,0.654565,0.711219,0.740229
0.694077,0.65451,0.711148,0.740155
0.694007,0.654455,0.711077,0.740081
0.693938,0.654399,0.711006,0.740007
0.693868,0.654344,0.710935,0.739933
0.693799,0.654288,0.710864,0.739859
0.69373,0.654233,0.710793,0.739785
0.69366,0.654177,0.710721,0.739711
0.693591,0.654122,0.71065,0.739637
0.693522,0.654067,0.710579,0.739563
0.693452,0.654011,0.710508,0.739489
0.693383,0.653956,0.710437,0.739415
0.693313,0.6539,0.710366,0.739341
0.693244,0.653845,0.731604,0.739267
0.692828,0.65379,0.731531,0.739193
0.692413,0.653734,0.731458,0.739119
0.691997,0.653679,0.731385,0.739045
0.691582,0.653623,0.731311,0.738971
0.691167,0.653568,0.731238,0.738897
0.690752,0.653513,0.731165,0.738824
0.690338,0.653457,0.731092,0.73875
0.689924,0.653402,0.731019,0.738676
0.68951,0.653347,0.730946,0.738602
0.689096,0.653291,0.730873,0.738528
0.688683,0.653236,0.7308,0.738454
0.68827,0.653181,0.730727,0.73838
0.687857,0.653125,0.730654,0.738306
0.687444,0.65307,0.73058,0.738233
0.687032,0.653015,0.730507,0.738159
0.686619,0.652959,0.730434,0.738085
0.686207,0.652904,0.730361,0.738011
0.686139,0.652849,0.730288,0.737937
0.68607,0.652793,0.730215,0.737864
0.686002,0.652738,0.730142,0.73779
0.685933,0.652683,0.730069,0.737716
0.685864,0.652627,0.729996,0.737642
0.685796,0.652572,0.729923,0.737569
0.685727,0.652517,0.72985,0.737495
0.685659,0.652462,0.729777,0.737421
0.68559,0.652406,0.729704,0.737347
0.685522,0.652351,0.729631,0.737274
0.685453,0.652296,0.729558,0.7372
0.685384,0.652241,0.729485,0.737126
0.685316,0.652185,0.729412,0.737052
0.685247,0.65213,0.729339,0.736979
0.685179,0.652075,0.729267,0.736905
0.68511,0.65202,0.729194,0.736831
0.685042,0.651964,0.729121,0.736758
0.684973,0.651909,0.729048,0.736684
0.684905,0.651854,0.728975,0.73661
0.684836,0.651799,0.728902,0.736537
0.684768,0.651743,0.728829,0.736463
0.684699,0.651688,0.728756,0.736389
0.684631,0.651633,0.728683,0.736316
0.684562,0.651578,0.72861,0.736242
0.684494,0.651523,0.728538,0.736168
0.684426,0.651467,0.728465,0.736095
0.684357,0.651412,0.728392,0.736021
0.684289,0.651357,0.728319,0.735948
0.68422,0.651302,0.728246,0.735874
0.684152,0.651247,0.728173,0.7358
0.684083,0.651192,0.728101,0.735727
0.684015,0.651136,0.728028,0.735653
0.683947,0.651081,0.727955,0.73558
0.683878,0.651026,0.727882,0.735506
0.68381,0.650971,0.727809,0.735433
0.683741,0.650916,0.727737,0.735359
0.683673,0.650861,0.727664,0.735285
0.683605,0.650806,0.727591,0.735212
0.683536,0.65075,0.727518,0.735138
0.683468,0.650695,0.727446,0.735065
0.6834,0.65064,0.727373,0.734991
0.683331,0.650585,0.7273,0.734918
0.683263,0.65053,0.727227,0.734844
0.683195,0.650475,0.727155,0.734771
0.683126,0.65042,0.727082,0.734697
0.683058,0.650365,0.727009,0.734624
0.68299,0.65031,0.726936,0.734551
0.682921,0.650254,0.726864,0.734477
0.682853,0.650199,0.726791,0.734404
0.682785,0.650144,0.726718,0.73433
0.682717,0.650089,0.726646,0.734257
0.682648,0.650034,0.726573,0.734183
0.68258,0.649979,0.7265,0.73411
0.682512,0.649924,0.726428,0.734036
0.682444,0.649869,0.726355,0.733963
0.682375,0.649814,0.726282,0.73389
0.682307,0.649759,0.72621,0.733816
0.682239,0.649704,0.726137,0.733743
0.682171,0.649649,0.726065,0.73367
0.682102,0.649594,0.725992,0.733596
0.682034,0.649539,0.725919,0.733523
0.681966,0.649484,0.725847,0.733449
0.681898,0.649429,0.725774,0.733376
0.68183,0.649374,0.725702,0.733303
0.681761,0.649319,0.725629,0.733229
0.681693,0.649264,0.725557,0.733156
0.681625,0.649209,0.725484,0.733083
0.681557,0.649154,0.725411,0.73301
0.681489,0.649099,0.725339,0.732936
0.681421,0.649044,0.725266,0.732863
0.681352,0.648989,0.725194,0.73279
0.681284,0.648934,0.725121,0.732716
0.681216,0.648879,0.725049,0.732643
0.681148,0.648824,0.724976,0.73257
0.68108,0.648769,0.724904,0.732497
0.681012,0.648714,0.724831,0.732423
0.680944,0.648659,0.724759,0.73235
0.680876,0.648604,0.724686,0.732277
0.680808,0.648549,0.724614,0.732204
0.680739,0.648494,0.724541,0.73213
0.680671,0.648439,0.724469,0.732057
0.680603,0.648384,0.724397,0.731984
0.680535,0.648329,0.724324,0.731911
0.680467,0.648274,0.724252,0.731838
0.680399,0.648219,0.724179,0.731764
0.680331,0.648165,0.724107,0.731691
0.680263,0.64811,0.724034,0.731618
0.680195,0.648055,0.723962,0.731545
0.680127,0.648,0.72389,0.731472
0.680059,0.647945,0.723817,0.731399
0.679991,0.64789,0.723745,0.731325
0.679923,0.647835,0.723672,0.731252
0.679855,0.64778,0.7236,0.731179
0.679787,0.647725,0.723528,0.731106
0.679719,0.647671,0.723455,0.731033
0.679651,0.647616,0.723383,0.73096
0.679583,0.647561,0.723311,0.730887
0.679515,0.647506,0.723238,0.730814
0.679447,0.647451,0.723166,0.730741
0.679379,0.647396,0.723094,0.730668
0.679311,0.647341,0.723021,0.730594
0.679243,0.647287,0.722949,0.730521
0.679175,0.647232,0.722877,0.730448
0.679108,0.647177,0.722805,0.730375
0.67904,0.647122,0.722732,0.730302
0.678972,0.647067,0.72266,0.730229
0.678904,0.647012,0.722588,0.730156
0.678836,0.646958,0.722515,0.730083
0.678768,0.646903,0.722443,0.73001
0.6787,0.646848,0.722371,0.729937
0.678632,0.646793,0.722299,0.729864
0.678564,0.646738,0.722226,0.729791
0.678497,0.646684,0.722154,0.729718
0.678429,0.646629,0.722082,0.729645
0.678361,0.646574,0.72201,0.729572
0.678293,0.646519,0.721938,0.729499
0.678225,0.646465,0.721865,0.729426
0.678157,0.64641,0.721793,0.729353
0.67809,0.646355,0.721721,0.72928
0.678022,0.6463,0.721649,0.729208
0.677954,0.646246,0.721577,0.729135
0.677886,0.646191,0.721505,0.729062
0.677818,0.646136,0.721432,0.728989
0.677751,0.646081,0.72136,0.728916
0.677683,0.646027,0.721288,0.728843
0.677615,0.645972,0.721216,0.72877
0.677547,0.645917,0.721144,0.728697
0.67748,0.645862,0.721072,0.728624
0.677412,0.645808,0.721,0.728552
0.677344,0.645753,0.720928,0.728479
0.677276,0.645698,0.720855,0.728406
0.677209,0.645644,0.720783,0.728333
0.677141,0.645589,0.720711,0.72826
0.677073,0.645534,0.720639,0.728187
0.677005,0.64548,0.720567,0.728115
0.676938,0.645425,0.720495,0.728042
0.67687,0.64537,0.720423,0.727969
0.676802,0.645316,0.720351,0.727896
0.676735,0.645261,0.720279,0.727823
0.676667,0.645206,0.720207,0.727751
0.676599,0.645152,0.720135,0.727678
0.676532,0.645097,0.720063,0.727605
0.676464,0.645042,0.719991,0.727532
0.676396,0.644988,0.719919,0.727459
0.676329,0.644933,0.719847,0.727387
0.676261,0.644878,0.719775,0.727314
0.676194,0.644824,0.719703,0.727241
0.676126,0.644769,0.719631,0.727169
0.676058,0.644714,0.719559,0.727096
0.675991,0.64466,0.719487,0.727023
0.675923,0.644605,0.719415,0.72695
0.675855,0.644551,0.719343,0.726878
0.675788,0.644496,0.719271,0.726805
0.67572,0.644441,0.719199,0.726732
0.675653,0.644387,0.719127,0.72666
0.675585,0.644332,0.719056,0.726587
0.675518,0.644278,0.718984,0.726514
0.67545,0.644223,0.718912,0.726442
0.675383,0.644169,0.71884,0.726369
0.675315,0.644114,0.718768,0.726296
0.675247,0.644059,0.718696,0.726224
0.67518,0.644005,0.718624,0.726151
0.675112,0.64395,0.718552,0.726079
0.675045,0.643896,0.71848,0.726006
0.674977,0.643841,0.718409,0.725933
0.67491,0.643787,0.718337,0.725861
0.674842,0.643732,0.718265,0.725788
0.674775,0.643678,0.718193,0.725716
0.674707,0.643623,0.718121,0.725643
0.67464,0.643569,0.718049,0.72557
0.674573,0.643514,0.717978,0.725498
0.674505,0.64346,0.717906,0.725425
0.674438,0.643405,0.717834,0.725353
0.67437,0.643351,0.717762,0.72528
0.674303,0.643296,0.717691,0.725208
0.674235,0.643242,0.717619,0.725135
0.674168,0.643187,0.717547,0.725063
0.6741,0.643133,0.717475,0.72499
0.674033,0.643078,0.717403,0.724918
0.673966,0.643024,0.717332,0.724845
0.673898,0.642969,0.71726,0.724773
0.673831,0.642915,0.717188,0.7247
0.673763,0.64286,0.717117,0.724628
0.673696,0.642806,0.717045,0.724555
0.673629,0.642751,0.716973,0.724483
0.673561,0.642697,0.716901,0.72441
0.673494,0.642642,0.71683,0.724338
0.673427,0.642588,0.716758,0.724266
0.673359,0.642534,0.716686,0.724193
0.673292,0.642479,0.716615,0.724121
0.672888,0.642425,0.716543,0.724048
0.672484,0.64237,0.716471,0.723976
0.672081,0.642316,0.7164,0.723903
0.671678,0.642261,0.716328,0.723831
0.671275,0.642207,0.716257,0.723759
0.670872,0.642153,0.716185,0.723686
0.670469,0.642098,0.716113,0.723614
0.670067,0.642044,0.716042,0.723542
0.669665,0.641989,0.71597,0.723469
0.669263,0.641935,0.715898,0.723397
0.668862,0.641881,0.715827,0.723325
0.668461,0.641826,0.715755,0.723252
0.66806,0.641772,0.715684,0.72318
0.667659,0.641718,0.715612,0.723108
0.667258,0.641663,0.715541,0.723035
0.666858,0.641609,0.715469,0.722963
0.666458,0.641554,0.715397,0.722891
0.666058,0.6415,0.715326,0.722818
0.665658,0.641446,0.715254,0.722746
0.665259,0.641391,0.715183,0.722674
0.66486,0.641337,0.715111,0.722602
0.664461,0.641283,0.71504,0.722529
0.664062,0.641228,0.714968,0.722457
0.663664,0.641174,0.714897,0.722385
0.663266,0.64112,0.714825,0.722313
0.662868,0.641066,0.714754,0.72224
0.66247,0.641011,0.714682,0.722168
0.662073,0.640957,0.714611,0.722096
0.661676,0.640903,0.714539,0.722024
0.661279,0.640848,0.714468,0.721951
0.660882,0.640794,0.714397,0.721879
0.660485,0.64074,0.714325,0.721807
0.660089,0.640685,0.714254,0.721735
0.659693,0.640631,0.714182,0.721663
0.659297,0.640577,0.714111,0.721591
0.658902,0.640523,0.714039,0.721518
0.658506,0.640468,0.713968,0.721446
0.658111,0.640414,0.713897,0.721374
0.657717,0.64036,0.713825,0.721302
0.657322,0.640306,0.713754,0.72123
0.656928,0.640251,0.713682,0.721158
0.656533,0.640197,0.713611,0.721086
0.65614,0.640143,0.71354,0.721013
0.655746,0.640089,0.713468,0.720941
0.655352,0.640035,0.713397,0.720869
0.654959,0.63998,0.713326,0.720797
0.654566,0.639926,0.713254,0.720725
0.654174,0.639872,0.713183,0.720653
0.653781,0.639818,0.713112,0.720581
0.653389,0.639763,0.71304,0.720509
0.652997,0.639709,0.712969,0.720437
0.652605,0.639655,0.712898,0.720365
0.652214,0.639601,0.712827,0.720293
0.651822,0.639547,0.712755,0.720221
0.651431,0.639493,0.712684,0.720149
0.65104,0.639438,0.712613,0.720077
