energy,productivity,fun,hunger
0.818066,0.931939,0.714843,0.654274
0.817984,0.931765,0.714771,0.654209
0.817494,0.931591,0.7147,0.654144
0.817003,0.931418,0.714629,0.654078
0.816513,0.931244,0.714557,0.654013
0.816023,0.93107,0.714486,0.653947
0.815534,0.930897,0.714414,0.653882
0.815044,0.930723,0.714343,0.653817
0.814555,0.93055,0.714271,0.653751
0.814067,0.930376,0.7142,0.653686
0.813578,0.930203,0.714128,0.65362
0.81309,0.930029,0.714057,0.653555
0.812602,0.929856,0.713986,0.65349
0.812115,0.929682,0.713914,0.653424
0.811628,0.929509,0.713843,0.653359
0.811141,0.929336,0.713771,0.653294
0.810654,0.929162,0.7137,0.653228
0.810168,0.928989,0.713629,0.653163
0.809682,0.928816,0.713557,0.653098
0.809196,0.928643,0.713486,0.653032
0.80871,0.92847,0.713415,0.652967
0.808225,0.928297,0.713343,0.652902
0.80572,0.929052,0.710419,0.652836
0.805639,0.928878,0.710348,0.652771
0.805559,0.928705,0.710277,0.652706
0.805075,0.928532,0.710206,0.652641
0.804592,0.928359,0.710135,0.652575
0.80411,0.928186,0.710064,0.65251
0.803627,0.928013,0.709993,0.652445
0.803145,0.92784,0.709922,0.65238
0.802663,0.927667,0.709851,0.652314
0.802182,0.927494,0.70978,0.652249
0.801701,0.927321,0.709709,0.652184
0.80122,0.927148,0.709638,0.652119
0.800739,0.926975,0.709567,0.652054
0.798257,0.927729,0.706658,0.651988
0.798177,0.927556,0.706587,0.651923
0.798097,0.927383,0.706517,0.651858
0.797618,0.92721,0.706446,0.651793
0.79714,0.927037,0.706375,0.651728
0.796662,0.926865,0.706305,0.651662
0.796184,0.926692,0.706234,0.651597
0.795706,0.926519,0.706163,0.651532
0.795626,0.926346,0.706093,0.651467
0.795547,0.926173,0.706022,0.651402
0.795467,0.926001,0.705952,0.651337
0.795388,0.925828,0.705881,0.651271
0.795308,0.925655,0.70581,0.651206
0.795229,0.925483,0.70574,0.651141
0.795149,0.92531,0.705669,0.651076
0.79507,0.925138,0.705599,0.651011
0.79499,0.924965,0.705528,0.650946
0.794911,0.924793,0.705458,0.650881
0.794831,0.92462,0.705387,0.650816
0.794752,0.924448,0.705316,0.650751
0.794672,0.924276,0.705246,0.650686
0.794593,0.924103,0.705175,0.65062
0.794513,0.923931,0.705105,0.650555
0.794434,0.923759,0.705034,0.65049
0.794354,0.923587,0.704964,0.650425
0.794275,0.923414,0.704893,0.65036
0.794195,0.923242,0.704823,0.650295
0.794116,0.92307,0.704752,0.65023
0.794037,0.922898,0.704682,0.650165
0.793957,0.922726,0.704611,0.6501
0.793878,0.922554,0.704541,0.650035
0.793798,0.922382,0.704471,0.64997
0.793719,0.92221,0.7044,0.649905
0.79364,0.922038,0.70433,0.64984
0.79356,0.921866,0.704259,0.649775
0.793481,0.921694,0.704189,0.64971
0.793402,0.921522,0.704118,0.649645
0.793322,0.92135,0.704048,0.64958
0.793243,0.921179,0.703978,0.649515
0.793164,0.921007,0.703907,0.64945
0.793084,0.920835,0.703837,0.649385
0.793005,0.920663,0.703766,0.64932
0.792926,0.920492,0.703696,0.649256
0.792846,0.92032,0.703626,0.649191
0.792767,0.920149,0.703555,0.649126
0.792688,0.919977,0.703485,0.649061
0.792609,0.919806,0.703415,0.648996
0.792529,0.919634,0.703344,0.648931
0.79245,0.919463,0.703274,0.648866
0.792371,0.919291,0.703204,0.648801
0.792292,0.91912,0.703133,0.648736
0.792212,0.918948,0.703063,0.648671
0.792133,0.918777,0.702993,0.648607
0.792054,0.918606,0.702922,0.648542
0.791975,0.918434,0.702852,0.648477
0.791896,0.918263,0.702782,0.648412
0.791816,0.918092,0.702711,0.648347
0.791737,0.917921,0.702641,0.648282
0.791658,0.91775,0.702571,0.648218
0.791579,0.917579,0.702501,0.648153
0.7915,0.917407,0.70243,0.648088
0.791421,0.917236,0.70236,0.648023
0.791341,0.917065,0.70229,0.647958
0.791262,0.916894,0.70222,0.647893
0.791183,0.916723,0.70215,0.647829
0.791104,0.916553,0.702079,0.647764
0.791025,0.916382,0.702009,0.647699
0.790946,0.916211,0.701939,0.647634
0.790867,0.91604,0.701869,0.64757
0.790788,0.915869,0.701799,0.647505
0.790709,0.915698,0.701728,0.64744
0.790629,0.915528,0.701658,0.647375
0.79055,0.915357,0.701588,0.647311
0.790471,0.915186,0.701518,0.647246
0.790392,0.915016,0.701448,0.647181
0.790313,0.914845,0.701378,0.647116
0.790234,0.914675,0.701307,0.647052
0.790155,0.914504,0.701237,0.646987
0.790076,0.914333,0.701167,0.646922
0.789997,0.914163,0.701097,0.646858
0.789918,0.913993,0.701027,0.646793
0.789839,0.913822,0.700957,0.646728
0.78976,0.913652,0.700887,0.646664
0.789681,0.913481,0.700817,0.646599
0.789602,0.913311,0.700747,0.646534
0.789523,0.913141,0.700676,0.64647
0.789444,0.912971,0.700606,0.646405
0.789365,0.9128,0.700536,0.64634
0.789286,0.91263,0.700466,0.646276
0.789208,0.91246,0.700396,0.646211
0.789129,0.91229,0.700326,0.646146
0.78905,0.91212,0.700256,0.646082
0.788971,0.91195,0.700186,0.646017
0.788892,0.91178,0.700116,0.645953
0.788813,0.91161,0.700046,0.645888
0.788734,0.91144,0.699976,0.645823
0.788655,0.91127,0.699906,0.645759
0.788576,0.9111,0.699836,0.645694
0.788498,0.91093,0.699766,0.64563
0.788419,0.91076,0.699696,0.645565
0.78834,0.91059,0.699626,0.645501
0.788261,0.910421,0.699556,0.645436
0.788182,0.910251,0.699486,0.645371
0.788103,0.910081,0.699416,0.645307
0.788025,0.909911,0.699346,0.645242
0.787946,0.909742,0.699276,0.645178
0.787867,0.909572,0.699207,0.645113
0.787788,0.909403,0.699137,0.645049
0.787709,0.909233,0.699067,0.644984
0.787631,0.909063,0.698997,0.64492
0.787552,0.908894,0.698927,0.644855
0.787473,0.908724,0.698857,0.644791
0.787394,0.908555,0.698787,0.644726
0.787316,0.908386,0.698717,0.644662
0.787237,0.908216,0.698647,0.644597
0.787158,0.908047,0.698577,0.644533
0.787079,0.907878,0.698508,0.644469
0.787001,0.907708,0.698438,0.644404
0.786922,0.907539,0.698368,0.64434
0.786843,0.90737,0.698298,0.644275
0.786765,0.907201,0.698228,0.644211
0.786686,0.907032,0.698158,0.644146
0.786607,0.906862,0.698089,0.644082
0.786529,0.906693,0.698019,0.644018
0.78645,0.906524,0.697949,0.643953
0.786371,0.906355,0.697879,0.643889
0.786293,0.906186,0.697809,0.643824
0.786214,0.906017,0.69774,0.64376
0.786135,0.905848,0.69767,0.643696
0.786057,0.90568,0.6976,0.643631
0.785978,0.905511,0.69753,0.643567
0.7859,0.905342,0.697461,0.643503
0.785821,0.905173,0.697391,0.643438
0.785742,0.905004,0.697321,0.643374
0.785664,0.904836,0.697251,0.64331
0.785585,0.904667,0.697182,0.643245
0.785507,0.904498,0.697112,0.643181
0.785428,0.90433,0.697042,0.643117
0.78535,0.904161,0.696973,0.643052
0.785271,0.903992,0.696903,0.642988
0.785193,0.903824,0.696833,0.642924
0.785114,0.903655,0.696763,0.642859
0.785036,0.903487,0.696694,0.642795
0.784957,0.903318,0.696624,0.642731
0.784879,0.90315,0.696554,0.642666
0.7848,0.902982,0.696485,0.642602
0.784722,0.902813,0.696415,0.642538
0.784643,0.902645,0.696346,0.642474
0.784565,0.902477,0.696276,0.642409
0.784486,0.902308,0.696206,0.642345
0.784408,0.90214,0.696137,0.642281
0.784329,0.901972,0.696067,0.642217
0.784251,0.901804,0.695997,0.642153
0.784172,0.901636,0.695928,0.642088
0.784094,0.901467,0.695858,0.642024
0.784016,0.901299,0.695789,0.64196
0.783937,0.901131,0.695719,0.641896
0.783859,0.900963,0.695649,0.641832
0.78378,0.900795,0.69558,0.641767
0.783702,0.900627,0.69551,0.641703
0.783624,0.900459,0.695441,0.641639
0.783545,0.900292,0.695371,0.641575
0.783467,0.900124,0.695302,0.641511
0.783389,0.899956,0.695232,0.641447
0.78331,0.899788,0.695163,0.641382
0.783232,0.89962,0.695093,0.641318
0.783154,0.899453,0.695024,0.641254
0.783075,0.899285,0.694954,0.64119
0.782997,0.899117,0.694885,0.641126
0.782919,0.89895,0.694815,0.641062
0.78284,0.898782,0.694746,0.640998
0.782762,0.898614,0.694676,0.640934
0.782684,0.898447,0.694607,0.640869
0.782606,0.898279,0.694537,0.640805
0.782527,0.898112,0.694468,0.640741
0.782449,0.897944,0.694398,0.640677
0.782371,0.897777,0.694329,0.640613
0.782293,0.89761,0.694259,0.640549
0.782214,0.897442,0.69419,0.640485
0.782136,0.897275,0.694121,0.640421
0.782058,0.897108,0.694051,0.640357
0.78198,0.89694,0.693982,0.640293
0.781902,0.896773,0.693912,0.640229
0.781823,0.896606,0.693843,0.640165
0.781745,0.896439,0.693774,0.640101
0.781667,0.896272,0.693704,0.640037
0.781589,0.896104,0.693635,0.639973
0.781511,0.895937,0.693566,0.639909
0.781433,0.89577,0.693496,0.639845
0.781354,0.895603,0.693427,0.639781
0.781276,0.895436,0.693357,0.639717
0.781198,0.895269,0.693288,0.639653
0.78112,0.895102,0.693219,0.639589
0.781042,0.894936,0.69315,0.639525
0.780964,0.894769,0.69308,0.639461
0.780886,0.894602,0.693011,0.639397
0.780808,0.894435,0.692942,0.639333
0.78073,0.894268,0.692872,0.639269
0.780651,0.894102,0.692803,0.639205
0.780573,0.893935,0.692734,0.639141
0.780495,0.893768,0.692664,0.639077
0.780417,0.893602,0.692595,0.639014
0.780339,0.893435,0.692526,0.63895
0.780261,0.893268,0.692457,0.638886
0.780183,0.893102,0.692387,0.638822
0.780105,0.892935,0.692318,0.638758
0.780027,0.892769,0.692249,0.638694
0.779949,0.892602,0.69218,0.63863
0.779871,0.892436,0.692111,0.638566
0.779793,0.89227,0.692041,0.638502
0.779715,0.892103,0.691972,0.638439
0.779637,0.891937,0.691903,0.638375
0.779559,0.891771,0.691834,0.638311
0.779481,0.891604,0.691765,0.638247
0.779403,0.891438,0.691695,0.638183
0.779325,0.891272,0.691626,0.638119
0.779247,0.891106,0.691557,0.638056
0.77917,0.89094,0.691488,0.637992
0.779092,0.890773,0.691419,0.637928
0.779014,0.890607,0.69135,0.637864
0.778936,0.890441,0.69128,0.6378
0.778858,0.890275,0.691211,0.637737
0.77878,0.890109,0.691142,0.637673
0.778702,0.889943,0.691073,0.637609
0.778624,0.889777,0.691004,0.637545
0.778546,0.889611,0.690935,0.637482
0.778469,0.889446,0.690866,0.637418
0.778391,0.88928,0.690797,0.637354
0.778313,0.889114,0.690728,0.63729
0.778235,0.888948,0.690659,0.637227
0.778157,0.888782,0.690589,0.637163
0.778079,0.888617,0.69052,0.637099
0.778002,0.888451,0.690451,0.637036
0.777924,0.888285,0.690382,0.636972
0.777846,0.88812,0.690313,0.636908
0.777768,0.887954,0.690244,0.636844
0.77769,0.887789,0.690175,0.636781
0.777613,0.887623,0.690106,0.636717
0.777535,0.887458,0.690037,0.636653
0.777457,0.887292,0.689968,0.63659
0.777379,0.887127,0.689899,0.636526
0.777302,0.886961,0.68983,0.636462
0.777224,0.886796,0.689761,0.636399
0.777146,0.886631,0.689692,0.636335
0.777069,0.886465,0.689623,0.636272
0.776991,0.8863,0.689554,0.636208
0.776913,0.886135,0.689485,0.636144
0.776835,0.88597,0.689416,0.636081
0.776758,0.885804,0.689347,0.636017
0.77668,0.885639,0.689279,0.635953
0.776602,0.885474,0.68921,0.63589
0.776525,0.885309,0.689141,0.635826
0.776447,0.885144,0.689072,0.635763
0.776369,0.884979,0.689003,0.635699
0.776292,0.884814,0.688934,0.635636
0.776214,0.884649,0.688865,0.635572
0.776137,0.884484,0.688796,0.635508
0.776059,0.884319,0.688727,0.635445
0.775981,0.884154,0.688658,0.635381
0.775904,0.883989,0.68859,0.635318
0.775826,0.883824,0.688521,0.635254
0.775749,0.88366,0.688452,0.635191
0.775671,0.883495,0.688383,0.635127
0.775593,0.88333,0.688314,0.635064
0.775516,0.883166,0.688245,0.635
0.775438,0.883001,0.688177,0.634937
0.775361,0.882836,0.688108,0.634873
0.775283,0.882672,0.688039,0.63481
0.775206,0.882507,0.68797,0.634746
0.775128,0.882342,0.687901,0.634683
0.775051,0.882178,0.687832,0.634619
0.774973,0.882013,0.687764,0.634556
0.774896,0.881849,0.687695,0.634492
0.774818,0.881685,0.687626,0.634429
0.774741,0.88152,0.687557,0.634365
0.774663,0.881356,0.687489,0.634302
0.774586,0.881192,0.68742,0.634239
0.774508,0.881027,0.687351,0.634175
0.774431,0.880863,0.687282,0.634112
0.774353,0.880699,0.687214,0.634048
0.774276,0.880535,0.687145,0.633985
0.774199,0.88037,0.687076,0.633922
0.774121,0.880206,0.687008,0.633858
0.774044,0.880042,0.686939,0.633795
0.773966,0.879878,0.68687,0.633731
0.773889,0.879714,0.686801,0.633668
0.773812,0.87955,0.686733,0.633605
0.773734,0.879386,0.686664,0.633541
0.773657,0.879222,0.686595,0.633478
0.773579,0.879058,0.686527,0.633415
0.773502,0.878894,0.686458,0.633351
0.773425,0.87873,0.686389,0.633288
0.773347,0.878566,0.686321,0.633225
0.77327,0.878403,0.686252,0.633161
0.773193,0.878239,0.686184,0.633098
0.773115,0.878075,0.686115,0.633035
0.773038,0.877911,0.686046,0.632971
0.772961,0.877748,0.685978,0.632908
0.772883,0.877584,0.685909,0.632845
0.772806,0.87742,0.685841,0.632781
0.772729,0.877257,0.685772,0.632718
0.772652,0.877093,0.685703,0.632655
0.772574,0.87693,0.685635,0.632592
0.772497,0.876766,0.685566,0.632528
0.77242,0.876603,0.685498,0.632465
0.772343,0.876439,0.685429,0.632402
0.772265,0.876276,0.685361,0.632339
0.772188,0.876113,0.685292,0.632275
0.772111,0.875949,0.685224,0.632212
0.772034,0.875786,0.685155,0.632149
0.771956,0.875623,0.685087,0.632086
0.771879,0.875459,0.685018,0.632023
0.771802,0.875296,0.68495,0.631959
0.771725,0.875133,0.684881,0.631896
0.771648,0.87497,0.684813,0.631833
0.771571,0.874807,0.684744,0.63177
0.771493,0.874643,0.684676,0.631707
0.771416,0.87448,0.684607,0.631643
0.771339,0.874317,0.684539,0.63158
0.771262,0.874154,0.68447,0.631517
0.771185,0.873991,0.684402,0.631454
0.771108,0.873828,0.684333,0.631391
0.771031,0.873665,0.684265,0.631328
0.770954,0.873503,0.684196,0.631265
0.770876,0.87334,0.684128,0.631201
0.770799,0.873177,0.68406,0.631138
0.770722,0.873014,0.683991,0.631075
0.770645,0.872851,0.683923,0.631012
0.770568,0.872689,0.683854,0.630949
0.770491,0.872526,0.683786,0.630886
0.770414,0.872363,0.683718,0.630823
0.770337,0.872201,0.683649,0.63076
0.77026,0.872038,0.683581,0.630697
0.770183,0.871875,0.683513,0.630634
0.770106,0.871713,0.683444,0.63057
0.770029,0.87155,0.683376,0.630507
0.769952,0.871388,0.683308,0.630444
0.769875,0.871225,0.683239,0.630381
0.769798,0.871063,0.683171,0.630318
0.769721,0.8709,0.683103,0.630255
0.769644,0.870738,0.683034,0.630192
0.769567,0.870576,0.682966,0.630129
0.76949,0.870413,0.682898,0.630066
0.769413,0.870251,0.682829,0.630003
0.769336,0.870089,0.682761,0.62994
0.769259,0.869927,0.682693,0.629877
0.769182,0.869764,0.682625,0.629814
0.769105,0.869602,0.682556,0.629751
0.769028,0.86944,0.682488,0.629688
0.768952,0.869278,0.68242,0.629625
0.768875,0.869116,0.682352,0.629562
0.768798,0.868954,0.682283,0.629499
0.768721,0.868792,0.682215,0.629436
0.768644,0.86863,0.682147,0.629373
0.768567,0.868468,0.682079,0.629311
0.76849,0.868306,0.68201,0.629248
0.768413,0.868144,0.681942,0.629185
0.768337,0.867982,0.681874,0.629122
0.76826,0.86782,0.681806,0.629059
0.768183,0.867659,0.681738,0.628996
0.768106,0.867497,0.681669,0.628933
0.768029,0.867335,0.681601,0.62887
0.767953,0.867173,0.681533,0.628807
0.767876,0.867012,0.681465,0.628744
0.767799,0.86685,0.681397,0.628682
0.767722,0.866688,0.681329,0.628619
0.767645,0.866527,0.681261,0.628556
0.767569,0.866365,0.681192,0.628493
0.767492,0.866204,0.681124,0.62843
0.767415,0.866042,0.681056,0.628367
0.767338,0.865881,0.680988,0.628304
0.767262,0.865719,0.68092,0.628242
0.767185,0.865558,0.680852,0.628179
0.767108,0.865397,0.680784,0.628116
0.767031,0.865235,0.680716,0.628053
0.766955,0.865074,0.680648,0.62799
0.766878,0.864913,0.68058,0.627928
0.766801,0.864751,0.680512,0.627865
0.766725,0.86459,0.680444,0.627802
0.766648,0.864429,0.680375,0.627739
0.766571,0.864268,0.680307,0.627676
0.766495,0.864107,0.680239,0.627614
0.766418,0.863945,0.680171,0.627551
0.766341,0.863784,0.680103,0.627488
0.766265,0.863623,0.680035,0.627425
0.766188,0.863462,0.679967,0.627363
0.766112,0.863301,0.679899,0.6273
0.766035,0.86314,0.679831,0.627237
0.765958,0.862979,0.679763,0.627174
0.765882,0.862818,0.679695,0.627112
0.765805,0.862658,0.679627,0.627049
0.765729,0.862497,0.679559,0.626986
0.765652,0.862336,0.679492,0.626924
0.765575,0.862175,0.679424,0.626861
0.765499,0.862014,0.679356,0.626798
0.765422,0.861854,0.679288,0.626736
0.765346,0.861693,0.67922,0.626673
0.765269,0.861532,0.679152,0.62661
0.765193,0.861372,0.679084,0.626548
0.765116,0.861211,0.679016,0.626485
0.76504,0.861051,0.678948,0.626422
0.764963,0.86089,0.67888,0.62636
0.764887,0.860729,0.678812,0.626297
0.76481,0.860569,0.678744,0.626234
0.764734,0.860409,0.678677,0.626172
0.764657,0.860248,0.678609,0.626109
0.764581,0.860088,0.678541,0.626046
0.764504,0.859927,0.678473,0.625984
0.764428,0.859767,0.678405,0.625921
0.764351,0.859607,0.678337,0.625859
0.764275,0.859446,0.678269,0.625796
0.764199,0.859286,0.678202,0.625734
0.764122,0.859126,0.678134,0.625671
0.764046,0.858966,0.678066,0.625608
0.763969,0.858806,0.677998,0.625546
0.763893,0.858646,0.67793,0.625483
0.763817,0.858485,0.677863,0.625421
0.76374,0.858325,0.677795,0.625358
0.763664,0.858165,0.677727,0.625296
0.763587,0.858005,0.677659,0.625233
0.763511,0.857845,0.677591,0.625171
0.763435,0.857685,0.677524,0.625108
0.763358,0.857526,0.677456,0.625046
0.763282,0.857366,0.677388,0.624983
0.763206,0.857206,0.67732,0.624921
0.763129,0.857046,0.677253,0.624858
0.763053,0.856886,0.677185,0.624796
0.762977,0.856726,0.677117,0.624733
0.7629,0.856567,0.67705,0.624671
0.762824,0.856407,0.676982,0.624608
0.762748,0.856247,0.676914,0.624546
0.762672,0.856088,0.676847,0.624483
0.762595,0.855928,0.676779,0.624421
0.762519,0.855768,0.676711,0.624358
0.762443,0.855609,0.676643,0.624296
0.762367,0.855449,0.676576,0.624233
0.76229,0.85529,0.676508,0.624171
0.762214,0.85513,0.676441,0.624109
0.762138,0.854971,0.676373,0.624046
0.762062,0.854812,0.676305,0.623984
0.761986,0.854652,0.676238,0.623921
0.761909,0.854493,0.67617,0.623859
0.761833,0.854333,0.676102,0.623797
0.761757,0.854174,0.676035,0.623734
0.761681,0.854015,0.675967,0.623672
0.761605,0.853856,0.6759,0.62361
0.761528,0.853696,0.675832,0.623547
0.761452,0.853537,0.675764,0.623485
0.761376,0.853378,0.675697,0.623422
0.7613,0.853219,0.675629,0.62336
0.761224,0.85306,0.675562,0.623298
0.761148,0.852901,0.675494,0.623235
0.761072,0.852742,0.675427,0.623173
0.760996,0.852583,0.675359,0.623111
0.760919,0.852424,0.675291,0.623048
0.760843,0.852265,0.675224,0.622986
0.760767,0.852106,0.675156,0.622924
0.760691,0.851947,0.675089,0.622862
0.760615,0.851788,0.675021,0.622799
0.760539,0.85163,0.674954,0.622737
0.760463,0.851471,0.674886,0.622675
0.760387,0.851312,0.674819,0.622612
0.760311,0.851153,0.674751,0.62255
0.760235,0.850995,0.674684,0.622488
0.760159,0.850836,0.674616,0.622426
0.760083,0.850677,0.674549,0.622363
0.760007,0.850519,0.674482,0.622301
0.759931,0.85036,0.674414,0.622239
0.759855,0.850202,0.674347,0.622177
0.759779,0.850043,0.674279,0.622115
0.759703,0.849885,0.674212,0.622052
0.759627,0.849726,0.674144,0.62199
0.759551,0.849568,0.674077,0.621928
0.759475,0.849409,0.67401,0.621866
0.759399,0.849251,0.673942,0.621804
0.759323,0.849093,0.673875,0.621741
0.759247,0.848934,0.673807,0.621679
0.759171,0.848776,0.67374,0.621617
0.759095,0.848618,0.673673,0.621555
0.759019,0.84846,0.673605,0.621493
0.758944,0.848301,0.673538,0.621431
0.758868,0.848143,0.673471,0.621368
0.758792,0.847985,0.673403,0.621306
0.758716,0.847827,0.673336,0.621244
0.75864,0.847669,0.673269,0.621182
0.758564,0.847511,0.673201,0.62112
0.758488,0.847353,0.673134,0.621058
0.758412,0.847195,0.673067,0.620996
0.758337,0.847037,0.672999,0.620934
0.758261,0.846879,0.672932,0.620872
0.758185,0.846721,0.672865,0.620809
0.758109,0.846563,0.672797,0.620747
0.758033,0.846405,0.67273,0.620685
0.757957,0.846247,0.672663,0.620623
0.757882,0.84609,0.672596,0.620561
0.757806,0.845932,0.672528,0.620499
0.75773,0.845774,0.672461,0.620437
0.757654,0.845617,0.672394,0.620375
0.757579,0.845459,0.672327,0.620313
0.757503,0.845301,0.672259,0.620251
0.757427,0.845144,0.672192,0.620189
0.757351,0.844986,0.672125,0.620127
0.757276,0.844828,0.672058,0.620065
0.7572,0.844671,0.67199,0.620003
0.757124,0.844513,0.671923,0.619941
0.757048,0.844356,0.671856,0.619879
0.756973,0.844199,0.671789,0.619817
0.756897,0.844041,0.671722,0.619755
0.756821,0.843884,0.671655,0.619693
0.756746,0.843726,0.671587,0.619631
0.75667,0.843569,0.67152,0.619569
0.756594,0.843412,0.671453,0.619507
0.756519,0.843255,0.671386,0.619445
0.756443,0.843097,0.671319,0.619383
0.756367,0.84294,0.671252,0.619321
0.756292,0.842783,0.671185,0.619259
0.756216,0.842626,0.671117,0.619197
0.75614,0.842469,0.67105,0.619135
0.756065,0.842312,0.670983,0.619074
0.755989,0.842155,0.670916,0.619012
0.755914,0.841998,0.670849,0.61895
0.755838,0.841841,0.670782,0.618888
0.755762,0.841684,0.670715,0.618826
0.755687,0.841527,0.670648,0.618764
0.755611,0.84137,0.670581,0.618702
0.755536,0.841213,0.670514,0.61864
