energy,productivity,fun,hunger
0.835778,0.620608,0.884904,0.813424
0.835695,0.620544,0.884816,0.813342
0.835193,0.620479,0.884727,0.813261
0.834692,0.620414,0.884639,0.81318
0.834192,0.620349,0.88455,0.813099
0.833691,0.620285,0.884462,0.813017
0.833191,0.62022,0.884373,0.812936
0.832691,0.620155,0.884285,0.812855
0.832191,0.620091,0.884197,0.812773
0.831692,0.620026,0.884108,0.812692
0.831193,0.619961,0.88402,0.812611
0.830695,0.619896,0.883931,0.81253
0.830196,0.619832,0.883843,0.812448
0.829698,0.619767,0.883755,0.812367
0.8292,0.619702,0.883666,0.812286
0.828703,0.619638,0.883578,0.812205
0.828206,0.619573,0.88349,0.812123
0.827709,0.619508,0.883401,0.812042
0.827212,0.619444,0.883313,0.811961
0.826716,0.619379,0.883224,0.81188
0.82622,0.619315,0.883136,0.811799
0.825724,0.61925,0.883048,0.811717
0.825229,0.619185,0.88296,0.811636
0.824734,0.619121,0.882871,0.811555
0.824239,0.619056,0.882783,0.811474
0.823744,0.618991,0.882695,0.811393
0.82325,0.618927,0.882606,0.811312
0.822756,0.618862,0.882518,0.81123
0.822263,0.618798,0.88243,0.811149
0.821769,0.618733,0.882342,0.811068
0.821276,0.618669,0.882253,0.810987
0.820784,0.618604,0.882165,0.810906
0.820291,0.618539,0.882077,0.810825
0.819799,0.618475,0.881989,0.810744
0.819307,0.61841,0.881901,0.810663
0.818816,0.618346,0.881812,0.810582
0.818324,0.618281,0.881724,0.810501
0.817833,0.618217,0.881636,0.81042
0.817343,0.618152,0.881548,0.810339
0.816852,0.618088,0.88146,0.810257
0.816362,0.618023,0.881372,0.810176
0.815873,0.617959,0.881283,0.810095
0.815383,0.617894,0.881195,0.810014
0.814894,0.61783,0.881107,0.809933
0.814405,0.617765,0.881019,0.809852
0.813916,0.617701,0.880931,0.809771
0.813428,0.617637,0.880843,0.80969
0.81294,0.617572,0.880755,0.80961
0.812452,0.617508,0.880667,0.809529
0.811965,0.617443,0.880579,0.809448
0.811478,0.617379,0.880491,0.809367
0.810991,0.617314,0.880403,0.809286
0.810504,0.61725,0.880315,0.809205
0.810018,0.617186,0.880226,0.809124
0.809532,0.617121,0.880138,0.809043
0.809047,0.617057,0.88005,0.808962
0.808561,0.616992,0.879962,0.808881
0.808076,0.616928,0.879874,0.8088
0.807187,0.61748,0.878027,0.808719
0.806299,0.618033,0.876183,0.808639
0.805413,0.618587,0.874343,0.808558
0.804527,0.619141,0.872507,0.808477
0.803642,0.619695,0.870675,0.808396
0.802758,0.62025,0.868847,0.808315
0.801875,0.620806,0.867023,0.808234
0.800993,0.621362,0.865202,0.808153
0.800112,0.621918,0.863385,0.808073
0.799232,0.622475,0.861572,0.807992
0.798353,0.623033,0.859763,0.807911
0.797475,0.623591,0.857958,0.80783
0.796598,0.624149,0.856156,0.807749
0.795721,0.624708,0.854359,0.807669
0.794846,0.625267,0.852565,0.807588
0.793972,0.625827,0.850774,0.807507
0.793099,0.626388,0.848988,0.807426
0.792226,0.626949,0.847205,0.807346
0.791355,0.62751,0.845426,0.807265
0.790484,0.628072,0.843651,0.807184
0.789615,0.628635,0.84188,0.807103
0.788747,0.629198,0.840112,0.807023
0.787879,0.629761,0.838348,0.806942
0.787012,0.630325,0.836587,0.806861
0.786147,0.63089,0.834831,0.806781
0.785282,0.631455,0.833078,0.8067
0.784418,0.63202,0.831328,0.806619
0.783556,0.632586,0.829583,0.806539
0.782694,0.633153,0.827841,0.806458
0.781833,0.63372,0.826103,0.806377
0.780973,0.634287,0.824368,0.806297
0.780114,0.634855,0.822637,0.806216
0.779256,0.635424,0.82091,0.806135
0.778399,0.635993,0.819186,0.806055
0.777543,0.636562,0.817466,0.805974
0.776687,0.637132,0.815749,0.805894
0.775833,0.637703,0.814036,0.805813
0.77498,0.638274,0.812327,0.805733
0.774127,0.638846,0.810621,0.805652
0.773276,0.639418,0.808919,0.805571
0.772425,0.63999,0.807221,0.805491
0.771576,0.640564,0.805526,0.80541
0.770727,0.641137,0.803834,0.80533
0.769879,0.641711,0.802146,0.805249
0.769033,0.642286,0.800462,0.805169
0.768187,0.642861,0.798781,0.805088
0.767342,0.643437,0.797104,0.805008
0.766498,0.644013,0.79543,0.804927
0.765655,0.64459,0.79376,0.804847
0.764813,0.645167,0.792093,0.804766
0.763971,0.645745,0.79043,0.804686
0.763131,0.646323,0.78877,0.804605
0.762292,0.646902,0.787114,0.804525
0.761453,0.647482,0.785461,0.804444
0.760616,0.648061,0.783812,0.804364
0.759779,0.648642,0.782166,0.804283
0.758944,0.649223,0.780523,0.804203
0.758109,0.649804,0.778885,0.804123
0.757275,0.650386,0.777249,0.804042
0.756442,0.650968,0.775617,0.803962
0.75561,0.651551,0.773988,0.803881
0.754779,0.652135,0.772363,0.803801
0.753949,0.652719,0.770741,0.803721
0.753119,0.653303,0.769123,0.80364
0.752291,0.653889,0.767508,0.80356
0.751464,0.654474,0.765896,0.80348
0.750637,0.65506,0.764288,0.803399
0.749811,0.655647,0.762683,0.803319
0.748987,0.656234,0.761082,0.803238
0.748163,0.656822,0.759484,0.803158
0.74734,0.65741,0.757889,0.803078
0.746518,0.657999,0.756297,0.802998
0.745697,0.658588,0.754709,0.802917
0.744877,0.659178,0.753125,0.802837
0.744057,0.659768,0.751543,0.802757
0.743239,0.660359,0.749965,0.802676
0.742422,0.66095,0.74839,0.802596
0.741605,0.661542,0.746819,0.802516
0.740789,0.662135,0.745251,0.802436
0.739974,0.662728,0.743686,0.802355
0.739161,0.663321,0.742124,0.802275
0.738348,0.663915,0.740566,0.802195
0.737535,0.66451,0.739011,0.802115
0.736724,0.665105,0.737459,0.802034
0.735914,0.6657,0.735911,0.801954
0.735105,0.666297,0.734365,0.801874
0.734296,0.666893,0.732823,0.801794
0.733488,0.667491,0.731284,0.801714
0.732682,0.668088,0.729749,0.801634
0.731876,0.668687,0.728217,0.801553
0.731071,0.669285,0.726687,0.801473
0.730267,0.669885,0.725162,0.801393
0.729463,0.670485,0.723639,0.801313
0.728661,0.671085,0.722119,0.801233
0.72786,0.671686,0.720603,0.801153
0.727059,0.672288,0.71909,0.801073
0.726259,0.67289,0.71758,0.800992
0.725461,0.673492,0.716073,0.800912
0.724663,0.674096,0.71457,0.800832
0.723866,0.674699,0.713069,0.800752
0.723069,0.675303,0.711572,0.800672
0.722274,0.675908,0.710078,0.800592
0.72148,0.676514,0.708587,0.800512
0.720686,0.677119,0.707099,0.800432
0.719893,0.677726,0.705614,0.800352
0.719102,0.678333,0.704132,0.800272
0.718311,0.67894,0.702654,0.800192
0.717521,0.679548,0.701178,0.800112
0.716731,0.680157,0.699706,0.800032
0.715943,0.680766,0.698237,0.799952
0.715156,0.681376,0.696771,0.799872
0.714369,0.681986,0.695308,0.799792
0.713583,0.682597,0.693848,0.799712
0.712798,0.683208,0.692391,0.799632
0.712014,0.68382,0.690937,0.799552
0.711231,0.684432,0.689486,0.799472
0.710449,0.685045,0.688038,0.799392
0.709667,0.685659,0.686593,0.799312
0.708887,0.686273,0.685152,0.799232
0.708107,0.686887,0.683713,0.799152
0.707328,0.687502,0.682277,0.799072
0.70655,0.688118,0.680845,0.798992
0.705773,0.688734,0.679415,0.798912
0.704997,0.689351,0.677988,0.798833
0.704222,0.689968,0.676565,0.798753
0.703447,0.690586,0.675144,0.798673
0.702673,0.691205,0.673727,0.798593
0.7019,0.691824,0.672312,0.798513
0.701128,0.692443,0.6709,0.798433
0.700357,0.693063,0.669491,0.798353
0.699587,0.693684,0.668086,0.798274
0.698817,0.694305,0.666683,0.798194
0.698049,0.694927,0.665283,0.798114
0.697281,0.695549,0.663886,0.798034
0.696514,0.696172,0.662492,0.797954
0.695748,0.696796,0.661101,0.797875
0.694983,0.69742,0.659713,0.797795
0.694218,0.698044,0.658327,0.797715
0.693455,0.69867,0.656945,0.797635
0.692692,0.699295,0.655565,0.797555
0.69193,0.699921,0.654189,0.797476
0.691169,0.700548,0.652815,0.797396
0.690409,0.701176,0.651444,0.797316
0.689649,0.701804,0.650077,0.797236
0.688891,0.702432,0.648712,0.797157
0.688133,0.703061,0.647349,0.797077
0.687376,0.703691,0.64599,0.796997
0.68662,0.704321,0.644634,0.796918
0.685865,0.704952,0.64328,0.796838
0.685111,0.705583,0.641929,0.796758
0.684357,0.706215,0.640581,0.796679
0.683604,0.706847,0.639236,0.796599
0.682852,0.70748,0.637894,0.796519
0.682101,0.708114,0.636554,0.79644
0.681351,0.708748,0.635218,0.79636
0.680602,0.709383,0.633884,0.79628
0.679853,0.710018,0.632553,0.796201
0.679105,0.710654,0.631225,0.796121
0.678358,0.71129,0.629899,0.796041
0.677612,0.711927,0.628577,0.795962
0.676867,0.712565,0.627257,0.795882
0.676123,0.713203,0.62594,0.795803
0.675379,0.713842,0.624625,0.795723
0.674636,0.714481,0.623314,0.795643
0.673894,0.715121,0.622005,0.795564
0.673153,0.715761,0.620699,0.795484
0.672412,0.716402,0.619395,0.795405
0.671673,0.717044,0.618095,0.795325
0.670934,0.717686,0.616797,0.795246
0.670196,0.718329,0.615502,0.795166
0.669459,0.718972,0.614209,0.795087
0.668723,0.719616,0.61292,0.795007
0.667987,0.72026,0.611633,0.794928
0.667252,0.720905,0.610348,0.794848
0.666518,0.721551,0.609067,0.794769
0.665785,0.722197,0.607788,0.794689
0.665053,0.722844,0.606512,0.79461
0.664321,0.723491,0.605238,0.79453
0.663591,0.724139,0.603967,0.794451
0.662861,0.724788,0.602699,0.794371
0.662132,0.725437,0.601433,0.794292
0.661404,0.726087,0.600171,0.794213
0.660676,0.726737,0.59891,0.794133
0.659949,0.727388,0.597653,0.794054
0.659224,0.728039,0.596398,0.793974
0.658498,0.728691,0.595145,0.793895
0.657774,0.729344,0.593896,0.793816
0.657051,0.729997,0.592649,0.793736
0.656328,0.730651,0.591404,0.793657
0.655606,0.731305,0.590162,0.793577
0.654885,0.73196,0.588923,0.793498
0.654165,0.732615,0.587687,0.793419
0.653445,0.733271,0.586453,0.793339
0.652726,0.733928,0.585221,0.79326
0.652009,0.734585,0.583992,0.793181
0.651291,0.735243,0.582766,0.793101
0.650575,0.735902,0.581542,0.793022
0.649859,0.736561,0.580321,0.792943
0.649145,0.73722,0.579103,0.792863
0.648431,0.73788,0.577887,0.792784
0.647717,0.738541,0.576673,0.792705
0.647005,0.739203,0.575462,0.792626
0.646293,0.739865,0.574254,0.792546
0.645583,0.740527,0.573048,0.792467
0.644872,0.74119,0.571845,0.792388
0.644163,0.741854,0.570644,0.792309
0.643455,0.742519,0.569446,0.792229
0.642747,0.743184,0.56825,0.79215
0.64204,0.743849,0.567057,0.792071
0.641334,0.744515,0.565866,0.791992
0.640628,0.745182,0.564678,0.791913
0.639924,0.745849,0.563492,0.791833
0.63922,0.746517,0.562309,0.791754
0.638517,0.747186,0.561128,0.791675
0.637815,0.747855,0.55995,0.791596
0.637751,0.747777,0.559894,0.791517
0.637687,0.747699,0.559838,0.791438
0.637623,0.747621,0.559782,0.791358
0.637559,0.747543,0.559726,0.791279
0.637496,0.747465,0.55967,0.7912
0.637432,0.747387,0.559614,0.791121
0.637368,0.747309,0.559558,0.791042
0.637304,0.747231,0.559502,0.790963
0.637241,0.747153,0.559446,0.790884
0.637177,0.747075,0.55939,0.790805
0.637113,0.746997,0.559334,0.790725
0.63705,0.746919,0.559278,0.790646
0.636986,0.746841,0.559223,0.790567
0.636922,0.746763,0.559167,0.790488
0.636858,0.746685,0.559111,0.790409
0.636795,0.746607,0.559055,0.79033
0.636731,0.746529,0.558999,0.790251
0.636667,0.746452,0.558943,0.790172
0.636604,0.746374,0.558887,0.790093
0.63654,0.746296,0.558831,0.790014
0.636476,0.746218,0.558775,0.789935
0.636413,0.74614,0.558719,0.789856
0.636349,0.746062,0.558664,0.789777
0.636286,0.745984,0.558608,0.789698
0.636222,0.745907,0.558552,0.789619
0.636158,0.745829,0.558496,0.78954
0.636095,0.745751,0.55844,0.789461
0.636031,0.745673,0.558384,0.789382
0.635967,0.745595,0.558328,0.789303
0.635904,0.745517,0.558273,0.789224
0.63584,0.74544,0.558217,0.789146
0.635777,0.745362,0.558161,0.789067
0.635713,0.745284,0.558105,0.788988
0.63565,0.745206,0.558049,0.788909
0.635586,0.745129,0.557994,0.78883
0.635522,0.745051,0.557938,0.788751
0.635459,0.744973,0.557882,0.788672
0.635395,0.744895,0.557826,0.788593
0.635332,0.744818,0.55777,0.788514
0.635268,0.74474,0.557715,0.788436
0.635205,0.744662,0.557659,0.788357
0.635141,0.744584,0.557603,0.788278
0.635078,0.744507,0.557547,0.788199
0.635014,0.744429,0.557492,0.78812
0.634951,0.744351,0.557436,0.788041
0.634887,0.744274,0.55738,0.787963
0.634824,0.744196,0.557324,0.787884
0.63476,0.744118,0.557269,0.787805
0.634697,0.744041,0.557213,0.787726
0.634633,0.743963,0.557157,0.787648
0.63457,0.743886,0.557101,0.787569
0.634506,0.743808,0.557046,0.78749
0.634443,0.74373,0.55699,0.787411
0.634379,0.743653,0.556934,0.787333
0.634316,0.743575,0.556879,0.787254
0.634253,0.743497,0.556823,0.787175
0.634189,0.74342,0.556767,0.787096
0.634126,0.743342,0.556712,0.787018
0.634062,0.743265,0.556656,0.786939
0.633999,0.743187,0.5566,0.78686
0.633935,0.74311,0.556545,0.786782
0.633872,0.743032,0.556489,0.786703
0.633809,0.742955,0.556433,0.786624
0.633745,0.742877,0.556378,0.786546
0.633682,0.7428,0.556322,0.786467
0.633619,0.742722,0.556266,0.786388
0.633555,0.742645,0.556211,0.78631
0.633492,0.742567,0.556155,0.786231
0.633429,0.74249,0.556099,0.786152
0.633365,0.742412,0.556044,0.786074
0.633302,0.742335,0.555988,0.785995
0.633239,0.742257,0.555933,0.785917
0.633175,0.74218,0.555877,0.785838
0.633112,0.742102,0.555821,0.785759
0.633049,0.742025,0.555766,0.785681
0.632985,0.741947,0.55571,0.785602
0.632922,0.74187,0.555655,0.785524
0.632859,0.741793,0.555599,0.785445
0.632795,0.741715,0.555544,0.785367
0.632732,0.741638,0.555488,0.785288
0.632669,0.74156,0.555433,0.785209
0.632606,0.741483,0.555377,0.785131
0.632542,0.741406,0.555321,0.785052
0.632479,0.741328,0.555266,0.784974
0.632416,0.741251,0.55521,0.784895
0.632353,0.741174,0.555155,0.784817
0.632289,0.741096,0.555099,0.784738
0.632226,0.741019,0.555044,0.78466
0.632163,0.740942,0.554988,0.784582
0.6321,0.740864,0.554933,0.784503
0.632036,0.740787,0.554877,0.784425
0.631973,0.74071,0.554822,0.784346
0.63191,0.740632,0.554766,0.784268
0.631847,0.740555,0.554711,0.784189
0.631784,0.740478,0.554655,0.784111
0.63172,0.740401,0.5546,0.784032
0.631657,0.740323,0.554545,0.783954
0.631594,0.740246,0.554489,0.783876
0.631531,0.740169,0.554434,0.783797
0.631468,0.740092,0.554378,0.783719
0.631405,0.740014,0.554323,0.783641
0.631342,0.739937,0.554267,0.783562
0.631278,0.73986,0.554212,0.783484
0.631215,0.739783,0.554156,0.783405
0.631152,0.739705,0.554101,0.783327
0.631089,0.739628,0.554046,0.783249
0.631026,0.739551,0.55399,0.78317
0.630963,0.739474,0.553935,0.783092
0.6309,0.739397,0.553879,0.783014
0.630837,0.73932,0.553824,0.782936
0.630774,0.739243,0.553769,0.782857
0.63071,0.739165,0.553713,0.782779
0.630647,0.739088,0.553658,0.782701
0.630584,0.739011,0.553603,0.782622
0.630521,0.738934,0.553547,0.782544
0.630458,0.738857,0.553492,0.782466
0.630395,0.73878,0.553436,0.782388
0.630332,0.738703,0.553381,0.782309
0.630269,0.738626,0.553326,0.782231
0.630206,0.738549,0.55327,0.782153
0.630143,0.738471,0.553215,0.782075
0.63008,0.738394,0.55316,0.781997
0.630017,0.738317,0.553105,0.781918
0.629954,0.73824,0.553049,0.78184
0.629891,0.738163,0.552994,0.781762
0.629828,0.738086,0.552939,0.781684
0.629765,0.738009,0.552883,0.781606
0.629702,0.737932,0.552828,0.781527
0.629639,0.737855,0.552773,0.781449
0.629576,0.737778,0.552717,0.781371
0.629513,0.737701,0.552662,0.781293
0.62945,0.737624,0.552607,0.781215
0.629387,0.737547,0.552552,0.781137
0.629324,0.73747,0.552496,0.781059
0.629261,0.737393,0.552441,0.780981
0.629199,0.737316,0.552386,0.780902
0.629136,0.73724,0.552331,0.780824
0.629073,0.737163,0.552275,0.780746
0.62901,0.737086,0.55222,0.780668
0.628947,0.737009,0.552165,0.78059
0.628884,0.736932,0.55211,0.780512
0.628821,0.736855,0.552055,0.780434
0.628758,0.736778,0.551999,0.780356
0.628695,0.736701,0.551944,0.780278
0.628632,0.736624,0.551889,0.7802
0.62857,0.736547,0.551834,0.780122
0.628507,0.736471,0.551779,0.780044
0.628444,0.736394,0.551723,0.779966
0.628381,0.736317,0.551668,0.779888
0.628318,0.73624,0.551613,0.77981
0.628255,0.736163,0.551558,0.779732
0.628193,0.736086,0.551503,0.779654
0.62813,0.73601,0.551448,0.779576
0.628067,0.735933,0.551392,0.779498
0.628004,0.735856,0.551337,0.77942
0.627941,0.735779,0.551282,0.779342
0.627879,0.735702,0.551227,0.779264
0.627816,0.735626,0.551172,0.779186
0.627753,0.735549,0.551117,0.779108
0.62769,0.735472,0.551062,0.77903
0.627627,0.735395,0.551007,0.778953
0.627565,0.735319,0.550951,0.778875
0.627502,0.735242,0.550896,0.778797
0.627439,0.735165,0.550841,0.778719
0.627376,0.735089,0.550786,0.778641
0.627314,0.735012,0.550731,0.778563
0.627251,0.734935,0.550676,0.778485
0.627188,0.734858,0.550621,0.778407
0.627125,0.734782,0.550566,0.77833
0.627063,0.734705,0.550511,0.778252
0.627,0.734628,0.550456,0.778174
0.626937,0.734552,0.550401,0.778096
0.626875,0.734475,0.550346,0.778018
0.626812,0.734399,0.550291,0.777941
0.626749,0.734322,0.550236,0.777863
0.626687,0.734245,0.550181,0.777785
0.626624,0.734169,0.550126,0.777707
0.626561,0.734092,0.550071,0.777629
0.626499,0.734015,0.550016,0.777552
0.626436,0.733939,0.549961,0.777474
0.626373,0.733862,0.549906,0.777396
0.626311,0.733786,0.549851,0.777318
0.626248,0.733709,0.549796,0.777241
0.626185,0.733633,0.549741,0.777163
0.626123,0.733556,0.549686,0.777085
0.62606,0.733479,0.549631,0.777007
0.625998,0.733403,0.549576,0.77693
0.625935,0.733326,0.549521,0.776852
0.625872,0.73325,0.549466,0.776774
0.62581,0.733173,0.549411,0.776697
0.625747,0.733097,0.549356,0.776619
0.625685,0.73302,0.549301,0.776541
0.625622,0.732944,0.549246,0.776464
0.62556,0.732867,0.549191,0.776386
0.625497,0.732791,0.549136,0.776308
0.625434,0.732714,0.549081,0.776231
0.625372,0.732638,0.549026,0.776153
0.625309,0.732562,0.548972,0.776076
0.625247,0.732485,0.548917,0.775998
0.625184,0.732409,0.548862,0.77592
0.625122,0.732332,0.548807,0.775843
0.625059,0.732256,0.548752,0.775765
0.624997,0.732179,0.548697,0.775688
0.624934,0.732103,0.548642,0.77561
0.624872,0.732027,0.548587,0.775533
0.624809,0.73195,0.548533,0.775455
0.624747,0.731874,0.548478,0.775377
0.624684,0.731798,0.548423,0.7753
0.624622,0.731721,0.548368,0.775222
0.624559,0.731645,0.548313,0.775145
0.624497,0.731568,0.548258,0.775067
0.624435,0.731492,0.548203,0.77499
0.624372,0.731416,0.548149,0.774912
0.62431,0.731339,0.548094,0.774835
0.624247,0.731263,0.548039,0.774757
0.624185,0.731187,0.547984,0.77468
0.624122,0.731111,0.547929,0.774602
0.62406,0.731034,0.547875,0.774525
0.623998,0.730958,0.54782,0.774447
0.623935,0.730882,0.547765,0.77437
0.623873,0.730805,0.54771,0.774293
0.62381,0.730729,0.547656,0.774215
0.623748,0.730653,0.547601,0.774138
0.623686,0.730577,0.547546,0.77406
0.623623,0.7305,0.547491,0.773983
0.623561,0.730424,0.547436,0.773906
0.623499,0.730348,0.547382,0.773828
0.623436,0.730272,0.547327,0.773751
0.623374,0.730196,0.547272,0.773673
0.623311,0.730119,0.547218,0.773596
0.623249,0.730043,0.547163,0.773519
0.623187,0.729967,0.547108,0.773441
0.623125,0.729891,0.547053,0.773364
0.623062,0.729815,0.546999,0.773287
0.623,0.729739,0.546944,0.773209
0.622938,0.729662,0.546889,0.773132
0.622875,0.729586,0.546835,0.773055
0.622813,0.72951,0.54678,0.772977
0.622751,0.729434,0.546725,0.7729
0.622688,0.729358,0.546671,0.772823
0.622626,0.729282,0.546616,0.772745
0.622564,0.729206,0.546561,0.772668
0.622502,0.72913,0.546507,0.772591
0.622439,0.729054,0.546452,0.772514
0.622377,0.728977,0.546397,0.772436
0.622315,0.728901,0.546343,0.772359
0.622253,0.728825,0.546288,0.772282
0.62219,0.728749,0.546233,0.772205
0.622128,0.728673,0.546179,0.772127
0.622066,0.728597,0.546124,0.77205
0.622004,0.728521,0.54607,0.771973
0.621942,0.728445,0.546015,0.771896
0.621879,0.728369,0.54596,0.771819
0.621817,0.728293,0.545906,0.771742
0.621755,0.728217,0.545851,0.771664
0.621693,0.728141,0.545797,0.771587
0.621631,0.728065,0.545742,0.77151
0.621569,0.727989,0.545687,0.771433
0.621506,0.727913,0.545633,0.771356
0.621444,0.727837,0.545578,0.771279
0.621382,0.727761,0.545524,0.771201
0.62132,0.727685,0.545469,0.771124
0.621258,0.727609,0.545415,0.771047
0.621196,0.727534,0.54536,0.77097
0.621134,0.727458,0.545306,0.770893
0.621071,0.727382,0.545251,0.770816
0.621009,0.727306,0.545196,0.770739
0.620947,0.72723,0.545142,0.770662
0.620885,0.727154,0.545087,0.770585
0.620823,0.727078,0.545033,0.770508
0.620761,0.727002,0.544978,0.770431
0.620699,0.726926,0.544924,0.770354
0.620637,0.726851,0.544869,0.770277
0.620575,0.726775,0.544815,0.770199
0.620513,0.726699,0.54476,0.770122
0.620451,0.726623,0.544706,0.770045
0.620389,0.726547,0.544652,0.769968
0.620327,0.726471,0.544597,0.769891
0.620265,0.726396,0.544543,0.769814
0.620203,0.72632,0.544488,0.769737
0.620141,0.726244,0.544434,0.769661
0.620079,0.726168,0.544379,0.769584
0.620016,0.726093,0.544325,0.769507
0.619954,0.726017,0.54427,0.76943
0.619893,0.725941,0.544216,0.769353
0.619831,0.725865,0.544162,0.769276
0.619769,0.72579,0.544107,0.769199
