energy,productivity,fun,hunger
0.644115,0.822984,0.508435,0.945462
0.64405,0.822927,0.523636,0.945368
0.643664,0.822869,0.539291,0.945273
0.643278,0.822811,0.555414,0.945179
0.642892,0.822753,0.57202,0.945084
0.642506,0.822695,0.589121,0.94499
0.64212,0.822638,0.606734,0.944895
0.641735,0.82258,0.624874,0.944801
0.64135,0.822522,0.643556,0.944706
0.640965,0.822464,0.662796,0.944612
0.640581,0.822407,0.682612,0.944517
0.640197,0.822349,0.70302,0.944423
0.639813,0.822291,0.724038,0.944328
0.639429,0.822233,0.723966,0.944234
0.639045,0.822176,0.723893,0.94414
0.638662,0.822118,0.723821,0.944045
0.638278,0.82206,0.723748,0.943951
0.637896,0.822002,0.723676,0.943856
0.637513,0.821945,0.723604,0.943762
0.63713,0.821887,0.723531,0.943668
0.636748,0.821829,0.723459,0.943573
0.636366,0.821771,0.723387,0.943479
0.635984,0.821714,0.723314,0.943385
0.635603,0.821656,0.723242,0.94329
0.635221,0.821598,0.72317,0.943196
0.63484,0.82154,0.723097,0.943102
0.634459,0.821483,0.723025,0.943007
0.634079,0.821425,0.722953,0.942913
0.633698,0.821367,0.72288,0.942819
0.633318,0.82131,0.722808,0.942724
0.632938,0.821252,0.722736,0.94263
0.632558,0.821194,0.722664,0.942536
0.632179,0.821137,0.722591,0.942442
0.6318,0.821079,0.722519,0.942347
0.631421,0.821021,0.722447,0.942253
0.631042,0.820964,0.722374,0.942159
0.630663,0.820906,0.722302,0.942065
0.630285,0.820848,0.72223,0.94197
0.629907,0.820791,0.722158,0.941876
0.629529,0.820733,0.722086,0.941782
0.629151,0.820675,0.722013,0.941688
0.628774,0.820618,0.721941,0.941594
0.628396,0.82056,0.721869,0.9415
0.628019,0.820502,0.721797,0.941405
0.627643,0.820445,0.721725,0.941311
0.627266,0.820387,0.721652,0.941217
0.62689,0.82033,0.72158,0.941123
0.626514,0.820272,0.721508,0.941029
0.626138,0.820214,0.721436,0.940935
0.625762,0.820157,0.721364,0.940841
0.625387,0.820099,0.721292,0.940747
0.625012,0.820041,0.72122,0.940653
0.624637,0.819984,0.721147,0.940558
0.624262,0.819926,0.721075,0.940464
0.623887,0.819869,0.721003,0.94037
0.623513,0.819811,0.720931,0.940276
0.623139,0.819754,0.720859,0.940182
0.622765,0.819696,0.720787,0.940088
0.622391,0.819638,0.720715,0.939994
0.622018,0.819581,0.720643,0.9399
0.621645,0.819523,0.720571,0.939806
0.621272,0.819466,0.720499,0.939712
0.620899,0.819408,0.720427,0.939618
0.620837,0.819351,0.720355,0.939524
0.620775,0.819293,0.720283,0.93943
0.620713,0.819235,0.720211,0.939337
0.620651,0.819178,0.720138,0.939243
0.620589,0.81912,0.720066,0.939149
0.620527,0.819063,0.719994,0.939055
0.620465,0.819005,0.719922,0.938961
0.620403,0.818948,0.71985,0.938867
0.620341,0.81889,0.719778,0.938773
0.620279,0.818833,0.719707,0.938679
0.620217,0.818775,0.719635,0.938585
0.620154,0.818718,0.719563,0.938491
0.620092,0.81866,0.719491,0.938398
0.62003,0.818603,0.719419,0.938304
0.619968,0.818545,0.719347,0.93821
0.619906,0.818488,0.719275,0.938116
0.619844,0.81843,0.719203,0.938022
0.619782,0.818373,0.719131,0.937928
0.619721,0.818315,0.719059,0.937835
0.619659,0.818258,0.718987,0.937741
0.619597,0.8182,0.718915,0.937647
0.619535,0.818143,0.718843,0.937553
0.619473,0.818085,0.718771,0.93746
0.619411,0.818028,0.7187,0.937366
0.619349,0.81797,0.718628,0.937272
0.619287,0.817913,0.718556,0.937178
0.619225,0.817856,0.718484,0.937085
0.619163,0.817798,0.718412,0.936991
0.619101,0.817741,0.71834,0.936897
0.619039,0.817683,0.718268,0.936804
0.618977,0.817626,0.718197,0.93671
0.618915,0.817568,0.718125,0.936616
0.618853,0.817511,0.718053,0.936523
0.618792,0.817453,0.717981,0.936429
0.61873,0.817396,0.717909,0.936335
0.618668,0.817339,0.717838,0.936242
0.618606,0.817281,0.717766,0.936148
0.618544,0.817224,0.717694,0.936054
0.618482,0.817166,0.717622,0.935961
0.61842,0.817109,0.717551,0.935867
0.618359,0.817052,0.717479,0.935774
0.618297,0.816994,0.717407,0.93568
0.618235,0.816937,0.717335,0.935586
0.618173,0.816879,0.717264,0.935493
0.618111,0.816822,0.717192,0.935399
0.618049,0.816765,0.71712,0.935306
0.617988,0.816707,0.717048,0.935212
0.617926,0.81665,0.716977,0.935119
0.617864,0.816593,0.716905,0.935025
0.617802,0.816535,0.716833,0.934932
0.61774,0.816478,0.716762,0.934838
0.617679,0.816421,0.71669,0.934745
0.617617,0.816363,0.716618,0.934651
0.617555,0.816306,0.716547,0.934558
0.617493,0.816249,0.716475,0.934464
0.617432,0.816191,0.716403,0.934371
0.61737,0.816134,0.716332,0.934278
0.617308,0.816077,0.71626,0.934184
0.617246,0.816019,0.716188,0.934091
0.617185,0.815962,0.716117,0.933997
0.617123,0.815905,0.716045,0.933904
0.617061,0.815847,0.715974,0.93381
0.617,0.81579,0.715902,0.933717
0.616938,0.815733,0.71583,0.933624
0.616876,0.815675,0.715759,0.93353
0.616815,0.815618,0.715687,0.933437
0.616753,0.815561,0.715616,0.933344
0.616691,0.815504,0.715544,0.93325
0.616629,0.815446,0.715473,0.933157
0.616568,0.815389,0.715401,0.933064
0.616506,0.815332,0.715329,0.93297
0.616445,0.815274,0.715258,0.932877
0.616383,0.815217,0.715186,0.932784
0.616321,0.81516,0.715115,0.932691
0.61626,0.815103,0.715043,0.932597
0.616198,0.815045,0.714972,0.932504
0.616136,0.814988,0.7149,0.932411
0.616075,0.814931,0.714829,0.932317
0.616013,0.814874,0.714757,0.932224
0.615952,0.814816,0.714686,0.932131
0.61589,0.814759,0.714614,0.932038
0.615828,0.814702,0.714543,0.931945
0.615767,0.814645,0.714472,0.931851
0.615705,0.814588,0.7144,0.931758
0.615644,0.81453,0.714329,0.931665
0.615582,0.814473,0.714257,0.931572
0.61552,0.814416,0.714186,0.931479
0.615459,0.814359,0.714114,0.931386
0.615397,0.814301,0.714043,0.931292
0.615336,0.814244,0.713972,0.931199
0.615274,0.814187,0.7139,0.931106
0.615213,0.81413,0.713829,0.931013
0.615151,0.814073,0.713757,0.93092
0.61509,0.814016,0.713686,0.930827
0.615028,0.813958,0.713615,0.930734
0.614967,0.813901,0.713543,0.930641
0.614905,0.813844,0.713472,0.930548
0.614844,0.813787,0.713401,0.930455
0.614782,0.81373,0.713329,0.930362
0.614721,0.813673,0.713258,0.930269
0.614659,0.813615,0.713187,0.930176
0.614598,0.813558,0.713115,0.930082
0.614536,0.813501,0.713044,0.929989
0.614475,0.813444,0.712973,0.929896
0.614413,0.813387,0.712901,0.929803
0.614352,0.81333,0.71283,0.929711
0.614291,0.813273,0.712759,0.929618
0.614229,0.813215,0.712687,0.929525
0.614168,0.813158,0.712616,0.929432
0.614106,0.813101,0.712545,0.929339
0.614045,0.813044,0.712474,0.929246
0.613984,0.812987,0.712402,0.929153
0.613922,0.81293,0.712331,0.92906
0.613861,0.812873,0.71226,0.928967
0.613799,0.812816,0.712189,0.928874
0.613738,0.812759,0.712118,0.928781
0.613677,0.812702,0.712046,0.928688
0.613615,0.812644,0.711975,0.928595
0.613554,0.812587,0.711904,0.928503
0.613493,0.81253,0.711833,0.92841
0.613431,0.812473,0.711762,0.928317
0.61337,0.812416,0.71169,0.928224
0.613308,0.812359,0.711619,0.928131
0.613247,0.812302,0.711548,0.928038
0.613186,0.812245,0.711477,0.927946
0.613125,0.812188,0.711406,0.927853
0.613063,0.812131,0.711335,0.92776
0.613002,0.812074,0.711263,0.927667
0.612941,0.812017,0.711192,0.927575
0.612879,0.81196,0.711121,0.927482
0.612818,0.811903,0.71105,0.927389
0.612757,0.811846,0.710979,0.927296
0.612695,0.811789,0.710908,0.927204
0.612634,0.811732,0.710837,0.927111
0.612573,0.811675,0.710766,0.927018
0.612512,0.811618,0.710695,0.926925
0.61245,0.811561,0.710624,0.926833
0.612389,0.811504,0.710553,0.92674
0.612328,0.811447,0.710481,0.926647
0.612267,0.81139,0.71041,0.926555
0.612205,0.811333,0.73165,0.926462
0.611838,0.811276,0.731576,0.926369
0.611471,0.811219,0.731503,0.926277
0.611104,0.811162,0.73143,0.926184
0.610738,0.811105,0.731357,0.926092
0.610371,0.811048,0.731284,0.925999
0.610005,0.810991,0.731211,0.925906
0.609639,0.810934,0.731138,0.925814
0.609273,0.810877,0.731064,0.925721
0.608908,0.81082,0.730991,0.925629
0.608542,0.810763,0.730918,0.925536
0.608177,0.810706,0.730845,0.925443
0.607812,0.810649,0.730772,0.925351
0.607448,0.810592,0.730699,0.925258
0.607083,0.810535,0.730626,0.925166
0.606719,0.810478,0.730553,0.925073
0.606355,0.810421,0.73048,0.924981
0.605991,0.810364,0.730407,0.924888
0.605628,0.810307,0.730334,0.924796
0.605264,0.81025,0.730261,0.924703
0.604901,0.810194,0.730188,0.924611
0.604538,0.810137,0.730115,0.924518
0.604176,0.81008,0.730042,0.924426
0.603813,0.810023,0.729969,0.924334
0.603451,0.809966,0.729896,0.924241
0.603089,0.809909,0.729823,0.924149
0.602727,0.809852,0.72975,0.924056
0.602366,0.809795,0.729677,0.923964
0.602004,0.809738,0.729604,0.923871
0.601643,0.809682,0.729531,0.923779
0.601282,0.809625,0.729458,0.923687
0.600921,0.809568,0.729385,0.923594
0.600561,0.809511,0.729312,0.923502
0.6002,0.809454,0.729239,0.92341
0.59984,0.809397,0.729166,0.923317
0.59948,0.80934,0.729093,0.923225
0.599121,0.809284,0.72902,0.923133
0.599061,0.809227,0.728947,0.92304
0.599001,0.80917,0.728874,0.922948
0.598941,0.809113,0.728802,0.922856
0.598881,0.809056,0.728729,0.922763
0.598821,0.808999,0.728656,0.922671
0.598761,0.808943,0.728583,0.922579
0.598702,0.808886,0.72851,0.922487
0.598642,0.808829,0.728437,0.922394
0.598582,0.808772,0.728364,0.922302
0.598522,0.808715,0.728292,0.92221
0.598462,0.808658,0.728219,0.922118
0.598402,0.808602,0.728146,0.922025
0.598342,0.808545,0.728073,0.921933
0.598283,0.808488,0.728,0.921841
0.598223,0.808431,0.727927,0.921749
0.598163,0.808375,0.727855,0.921657
0.598103,0.808318,0.727782,0.921565
0.598043,0.808261,0.727709,0.921472
0.597984,0.808204,0.727636,0.92138
0.597924,0.808147,0.727564,0.921288
0.597864,0.808091,0.727491,0.921196
0.597804,0.808034,0.727418,0.921104
0.597744,0.807977,0.727345,0.921012
0.597685,0.80792,0.727273,0.92092
0.597625,0.807864,0.7272,0.920828
0.597565,0.807807,0.727127,0.920735
0.597505,0.80775,0.727054,0.920643
0.597446,0.807693,0.726982,0.920551
0.597386,0.807637,0.726909,0.920459
0.597326,0.80758,0.726836,0.920367
0.597266,0.807523,0.726764,0.920275
0.597207,0.807467,0.726691,0.920183
0.597147,0.80741,0.726618,0.920091
0.597087,0.807353,0.726546,0.919999
0.597027,0.807296,0.726473,0.919907
0.596968,0.80724,0.7264,0.919815
0.596908,0.807183,0.726328,0.919723
0.596848,0.807126,0.726255,0.919631
0.596789,0.80707,0.726182,0.919539
0.596729,0.807013,0.72611,0.919447
0.596669,0.806956,0.726037,0.919355
0.59661,0.8069,0.725965,0.919263
0.59655,0.806843,0.725892,0.919171
0.59649,0.806786,0.725819,0.91908
0.596431,0.80673,0.725747,0.918988
0.596371,0.806673,0.725674,0.918896
0.596311,0.806616,0.725602,0.918804
0.596252,0.80656,0.725529,0.918712
0.596192,0.806503,0.725457,0.91862
0.596133,0.806446,0.725384,0.918528
0.596073,0.80639,0.725312,0.918436
0.596013,0.806333,0.725239,0.918345
0.595954,0.806276,0.725166,0.918253
0.595894,0.80622,0.725094,0.918161
0.595835,0.806163,0.725021,0.918069
0.595775,0.806106,0.724949,0.917977
0.595715,0.80605,0.724876,0.917885
0.595656,0.805993,0.724804,0.917794
0.595596,0.805937,0.724731,0.917702
0.595537,0.80588,0.724659,0.91761
0.595477,0.805823,0.724587,0.917518
0.595418,0.805767,0.724514,0.917427
0.595358,0.80571,0.724442,0.917335
0.595299,0.805654,0.724369,0.917243
0.595239,0.805597,0.724297,0.917151
0.595179,0.80554,0.724224,0.91706
0.59512,0.805484,0.724152,0.916968
0.59506,0.805427,0.724079,0.916876
0.595001,0.805371,0.724007,0.916785
0.594941,0.805314,0.723935,0.916693
0.594882,0.805258,0.723862,0.916601
0.594822,0.805201,0.72379,0.91651
0.594763,0.805144,0.723717,0.916418
0.594703,0.805088,0.723645,0.916326
0.594644,0.805031,0.723573,0.916235
0.594585,0.804975,0.7235,0.916143
0.594525,0.804918,0.723428,0.916051
0.594466,0.804862,0.723356,0.91596
0.594406,0.804805,0.723283,0.915868
0.594347,0.804749,0.723211,0.915777
0.594287,0.804692,0.723139,0.915685
0.594228,0.804636,0.723066,0.915594
0.594168,0.804579,0.722994,0.915502
0.594109,0.804523,0.722922,0.91541
0.59405,0.804466,0.72285,0.915319
0.59399,0.80441,0.722777,0.915227
0.593931,0.804353,0.722705,0.915136
0.593871,0.804297,0.722633,0.915044
0.593812,0.80424,0.72256,0.914953
0.593753,0.804184,0.722488,0.914861
0.593693,0.804127,0.722416,0.91477
0.593634,0.804071,0.722344,0.914678
0.593575,0.804014,0.722271,0.914587
0.593515,0.803958,0.722199,0.914495
0.593456,0.803901,0.722127,0.914404
0.593396,0.803845,0.722055,0.914313
0.593337,0.803788,0.721983,0.914221
0.593278,0.803732,0.72191,0.91413
0.593218,0.803675,0.721838,0.914038
0.593159,0.803619,0.721766,0.913947
0.5931,0.803562,0.721694,0.913855
0.593041,0.803506,0.721622,0.913764
0.592981,0.80345,0.721549,0.913673
0.592922,0.803393,0.721477,0.913581
0.592863,0.803337,0.721405,0.91349
0.592803,0.80328,0.721333,0.913399
0.592744,0.803224,0.721261,0.913307
0.592685,0.803167,0.721189,0.913216
0.592626,0.803111,0.721117,0.913125
0.592566,0.803055,0.721045,0.913033
0.592507,0.802998,0.720972,0.912942
0.592448,0.802942,0.7209,0.912851
0.592389,0.802885,0.720828,0.912759
0.592329,0.802829,0.720756,0.912668
0.59227,0.802773,0.720684,0.912577
0.592211,0.802716,0.720612,0.912486
0.592152,0.80266,0.72054,0.912394
0.592092,0.802603,0.720468,0.912303
0.592033,0.802547,0.720396,0.912212
0.591974,0.802491,0.720324,0.912121
0.591915,0.802434,0.720252,0.912029
0.591856,0.802378,0.72018,0.911938
0.591796,0.802322,0.720108,0.911847
0.591737,0.802265,0.720036,0.911756
0.591678,0.802209,0.719964,0.911665
0.591619,0.802153,0.719892,0.911574
0.59156,0.802096,0.71982,0.911482
0.591501,0.80204,0.719748,0.911391
0.591441,0.801984,0.719676,0.9113
0.591382,0.801927,0.719604,0.911209
0.591323,0.801871,0.719532,0.911118
0.591264,0.801815,0.71946,0.911027
0.591205,0.801758,0.719388,0.910936
0.591146,0.801702,0.719316,0.910845
0.591087,0.801646,0.719244,0.910753
0.591028,0.801589,0.719172,0.910662
0.590968,0.801533,0.7191,0.910571
0.590909,0.801477,0.719028,0.91048
0.59085,0.80142,0.718956,0.910389
0.590791,0.801364,0.718885,0.910298
0.590732,0.801308,0.718813,0.910207
0.590673,0.801252,0.718741,0.910116
0.590614,0.801195,0.718669,0.910025
0.590555,0.801139,0.718597,0.909934
0.590496,0.801083,0.718525,0.909843
0.590437,0.801026,0.718453,0.909752
0.590378,0.80097,0.718381,0.909661
0.590319,0.800914,0.71831,0.90957
0.59026,0.800858,0.718238,0.909479
0.590201,0.800801,0.718166,0.909388
0.590142,0.800745,0.718094,0.909297
0.590083,0.800689,0.718022,0.909206
0.590024,0.800633,0.717951,0.909115
0.589965,0.800576,0.717879,0.909025
0.589906,0.80052,0.717807,0.908934
0.589847,0.800464,0.717735,0.908843
0.589788,0.800408,0.717663,0.908752
0.589729,0.800352,0.717592,0.908661
0.58967,0.800295,0.71752,0.90857
0.589611,0.800239,0.717448,0.908479
0.589552,0.800183,0.717376,0.908388
0.589493,0.800127,0.717305,0.908298
0.589434,0.80007,0.717233,0.908207
0.589375,0.800014,0.717161,0.908116
0.589316,0.799958,0.717089,0.908025
0.589257,0.799902,0.717018,0.907934
0.589198,0.799846,0.716946,0.907844
0.589139,0.79979,0.716874,0.907753
0.58908,0.799733,0.716803,0.907662
0.589021,0.799677,0.716731,0.907571
0.588962,0.799621,0.716659,0.90748
0.588904,0.799565,0.716588,0.90739
0.588845,0.799509,0.716516,0.907299
0.588786,0.799453,0.716444,0.907208
0.588727,0.799396,0.716373,0.907118
0.588668,0.79934,0.716301,0.907027
0.588609,0.799284,0.716229,0.906936
0.58855,0.799228,0.716158,0.906845
0.588491,0.799172,0.716086,0.906755
0.588433,0.799116,0.716015,0.906664
0.588374,0.79906,0.715943,0.906573
0.588315,0.799003,0.715871,0.906483
0.588256,0.798947,0.7158,0.906392
0.588197,0.798891,0.715728,0.906301
0.588138,0.798835,0.715657,0.906211
0.58808,0.798779,0.715585,0.90612
0.588021,0.798723,0.715514,0.90603
0.587962,0.798667,0.715442,0.905939
0.587903,0.798611,0.71537,0.905848
0.587844,0.798555,0.715299,0.905758
0.587786,0.798498,0.715227,0.905667
0.587727,0.798442,0.715156,0.905577
0.587668,0.798386,0.715084,0.905486
0.587609,0.79833,0.715013,0.905396
0.587551,0.798274,0.714941,0.905305
0.587492,0.798218,0.71487,0.905214
0.587433,0.798162,0.714798,0.905124
0.587374,0.798106,0.714727,0.905033
0.587316,0.79805,0.714655,0.904943
0.587257,0.797994,0.714584,0.904852
0.587198,0.797938,0.714512,0.904762
0.587139,0.797882,0.714441,0.904672
0.587081,0.797826,0.71437,0.904581
0.587022,0.79777,0.714298,0.904491
0.586963,0.797714,0.714227,0.9044
0.586905,0.797658,0.714155,0.90431
0.586846,0.797602,0.714084,0.904219
0.586787,0.797546,0.714012,0.904129
0.586729,0.797489,0.713941,0.904038
0.58667,0.797433,0.71387,0.903948
0.586611,0.797377,0.713798,0.903858
0.586553,0.797321,0.713727,0.903767
0.586494,0.797265,0.713656,0.903677
0.586435,0.797209,0.713584,0.903586
0.586377,0.797153,0.713513,0.903496
0.586318,0.797097,0.713441,0.903406
0.586259,0.797041,0.71337,0.903315
0.586201,0.796985,0.713299,0.903225
0.586142,0.79693,0.713227,0.903135
0.586083,0.796874,0.713156,0.903044
0.586025,0.796818,0.713085,0.902954
0.585966,0.796762,0.713014,0.902864
0.585908,0.796706,0.712942,0.902774
0.585849,0.79665,0.712871,0.902683
0.58579,0.796594,0.7128,0.902593
0.585732,0.796538,0.712728,0.902503
0.585673,0.796482,0.712657,0.902413
0.585615,0.796426,0.712586,0.902322
0.585556,0.79637,0.712515,0.902232
0.585498,0.796314,0.712443,0.902142
0.585439,0.796258,0.712372,0.902052
0.585381,0.796202,0.712301,0.901961
0.585322,0.796146,0.71223,0.901871
0.585263,0.79609,0.712158,0.901781
0.585205,0.796034,0.712087,0.901691
0.585146,0.795978,0.712016,0.901601
0.585088,0.795923,0.711945,0.901511
0.585029,0.795867,0.711874,0.90142
0.584971,0.795811,0.711802,0.90133
0.584912,0.795755,0.711731,0.90124
0.584854,0.795699,0.71166,0.90115
0.584795,0.795643,0.711589,0.90106
0.584737,0.795587,0.711518,0.90097
0.584678,0.795531,0.711447,0.90088
0.58462,0.795475,0.711375,0.90079
0.584562,0.79542,0.711304,0.900699
0.584503,0.795364,0.711233,0.900609
0.584445,0.795308,0.711162,0.900519
0.584386,0.795252,0.711091,0.900429
0.584328,0.795196,0.71102,0.900339
0.584269,0.79514,0.710949,0.900249
0.584211,0.795084,0.710878,0.900159
0.584152,0.795029,0.710806,0.900069
0.584094,0.794973,0.710735,0.899979
0.584036,0.794917,0.710664,0.899889
0.583977,0.794861,0.710593,0.899799
0.583919,0.794805,0.710522,0.899709
0.58386,0.794749,0.710451,0.899619
0.583802,0.794694,0.71038,0.899529
0.583744,0.794638,0.731618,0.899439
0.583393,0.794582,0.731545,0.899349
0.583043,0.794526,0.731472,0.899259
0.582694,0.79447,0.731399,0.89917
0.582344,0.794414,0.731326,0.89908
0.581995,0.794359,0.731253,0.89899
0.581646,0.794303,0.731179,0.8989
0.581297,0.794247,0.731106,0.89881
0.580948,0.794191,0.731033,0.89872
0.580599,0.794135,0.73096,0.89863
0.580251,0.79408,0.730887,0.89854
0.579903,0.794024,0.730814,0.89845
0.579555,0.793968,0.730741,0.898361
0.579207,0.793912,0.730668,0.898271
0.57886,0.793857,0.730595,0.898181
0.578512,0.793801,0.730522,0.898091
0.578165,0.793745,0.730449,0.898001
0.577818,0.793689,0.730376,0.897912
0.577472,0.793634,0.730303,0.897822
0.577125,0.793578,0.73023,0.897732
0.576779,0.793522,0.730156,0.897642
0.576433,0.793466,0.730083,0.897552
0.576087,0.793411,0.73001,0.897463
0.575742,0.793355,0.729937,0.897373
0.575396,0.793299,0.729864,0.897283
0.575051,0.793243,0.729791,0.897193
0.574706,0.793188,0.729719,0.897104
0.574361,0.793132,0.729646,0.897014
0.574017,0.793076,0.729573,0.896924
0.573672,0.793021,0.7295,0.896835
0.573328,0.792965,0.729427,0.896745
0.572984,0.792909,0.729354,0.896655
0.57264,0.792854,0.729281,0.896566
0.572297,0.792798,0.729208,0.896476
0.571953,0.792742,0.729135,0.896386
0.57161,0.792686,0.729062,0.896297
0.571267,0.792631,0.728989,0.896207
0.570925,0.792575,0.728916,0.896117
0.570582,0.792519,0.728843,0.896028
0.57024,0.792464,0.72877,0.895938
0.569898,0.792408,0.728698,0.895849
0.569556,0.792352,0.728625,0.895759
0.569214,0.792297,0.728552,0.895669
0.569157,0.792241,0.728479,0.89558
0.5691,0.792186,0.728406,0.89549
0.569043,0.79213,0.728333,0.895401
0.568986,0.792074,0.72826,0.895311
0.568929,0.792019,0.728188,0.895222
0.568873,0.791963,0.728115,0.895132
0.568816,0.791907,0.728042,0.895043
0.568759,0.791852,0.727969,0.894953
0.568702,0.791796,0.727896,0.894864
0.568645,0.79174,0.727824,0.894774
0.568588,0.791685,0.727751,0.894685
0.568531,0.791629,0.727678,0.894595
0.568475,0.791574,0.727605,0.894506
0.568418,0.791518,0.727533,0.894416
0.568361,0.791462,0.72746,0.894327
0.568304,0.791407,0.727387,0.894237
0.568247,0.791351,0.727314,0.894148
0.56819,0.791296,0.727242,0.894059
0.568134,0.79124,0.727169,0.893969
0.568077,0.791185,0.727096,0.89388
