energy,productivity,fun,hunger
0.665429,0.775175,0.673446,0.776817
0.665363,0.775109,0.69358,0.776739
0.664963,0.775044,0.714316,0.776661
0.664564,0.774978,0.735672,0.776584
0.664166,0.774913,0.735598,0.776506
0.663767,0.774847,0.735525,0.776428
0.663369,0.774781,0.735451,0.776351
0.662971,0.774716,0.735378,0.776273
0.662573,0.77465,0.735304,0.776195
0.662176,0.774585,0.735231,0.776118
0.661779,0.774519,0.735157,0.77604
0.661382,0.774454,0.735084,0.775963
0.660985,0.774388,0.73501,0.775885
0.660588,0.774323,0.734937,0.775807
0.660192,0.774257,0.734863,0.77573
0.659796,0.774192,0.73479,0.775652
0.6594,0.774126,0.734716,0.775575
0.659004,0.774061,0.734643,0.775497
0.658609,0.773995,0.734569,0.775419
0.658214,0.77393,0.734496,0.775342
0.657819,0.773864,0.734422,0.775264
0.657424,0.773799,0.734349,0.775187
0.65703,0.773733,0.734275,0.775109
0.656636,0.773668,0.734202,0.775032
0.656242,0.773602,0.734129,0.774954
0.655848,0.773537,0.734055,0.774877
0.655455,0.773471,0.733982,0.774799
0.655061,0.773406,0.733908,0.774722
0.654668,0.77334,0.733835,0.774644
0.654276,0.773275,0.733762,0.774567
0.653883,0.773209,0.733688,0.77449
0.653491,0.773144,0.733615,0.774412
0.653099,0.773079,0.733541,0.774335
0.652707,0.773013,0.733468,0.774257
0.652315,0.772948,0.733395,0.77418
0.651924,0.772882,0.733321,0.774102
0.651533,0.772817,0.733248,0.774025
0.651142,0.772752,0.733175,0.773948
0.651077,0.772686,0.733101,0.77387
0.651012,0.772621,0.733028,0.773793
0.650947,0.772555,0.732955,0.773715
0.650881,0.77249,0.732882,0.773638
0.650816,0.772425,0.732808,0.773561
0.650751,0.772359,0.732735,0.773483
0.650686,0.772294,0.732662,0.773406
0.650621,0.772229,0.732588,0.773329
0.650556,0.772163,0.732515,0.773251
0.650491,0.772098,0.732442,0.773174
0.650426,0.772033,0.732369,0.773097
0.650361,0.771967,0.732295,0.773019
0.650296,0.771902,0.732222,0.772942
0.650231,0.771837,0.732149,0.772865
0.650166,0.771771,0.732076,0.772787
0.650101,0.771706,0.732003,0.77271
0.650036,0.771641,0.731929,0.772633
0.649971,0.771575,0.731856,0.772556
0.649906,0.77151,0.731783,0.772478
0.649841,0.771445,0.73171,0.772401
0.649776,0.771379,0.731637,0.772324
0.649711,0.771314,0.731563,0.772247
0.649646,0.771249,0.73149,0.772169
0.649581,0.771184,0.731417,0.772092
0.649516,0.771118,0.731344,0.772015
0.649451,0.771053,0.731271,0.771938
0.649386,0.770988,0.731198,0.771861
0.649321,0.770923,0.731125,0.771783
0.649256,0.770857,0.731052,0.771706
0.649191,0.770792,0.730978,0.771629
0.649126,0.770727,0.730905,0.771552
0.649061,0.770662,0.730832,0.771475
0.648996,0.770596,0.730759,0.771398
0.648932,0.770531,0.730686,0.77132
0.648867,0.770466,0.730613,0.771243
0.648802,0.770401,0.73054,0.771166
0.648737,0.770336,0.730467,0.771089
0.648672,0.77027,0.730394,0.771012
0.648607,0.770205,0.730321,0.770935
0.648542,0.77014,0.730248,0.770858
0.648477,0.770075,0.730175,0.770781
0.648413,0.77001,0.730102,0.770704
0.648348,0.769945,0.730029,0.770627
0.648283,0.769879,0.729956,0.770549
0.648218,0.769814,0.729883,0.770472
0.648153,0.769749,0.72981,0.770395
0.648088,0.769684,0.729737,0.770318
0.648024,0.769619,0.729664,0.770241
0.647959,0.769554,0.729591,0.770164
0.647894,0.769489,0.729518,0.770087
0.647829,0.769423,0.729445,0.77001
0.647765,0.769358,0.729372,0.769933
0.6477,0.769293,0.729299,0.769856
0.647635,0.769228,0.729226,0.769779
0.64757,0.769163,0.729153,0.769702
0.647505,0.769098,0.72908,0.769625
0.647441,0.769033,0.729007,0.769548
0.647376,0.768968,0.728934,0.769471
0.647311,0.768903,0.728862,0.769394
0.647246,0.768838,0.728789,0.769318
0.647182,0.768773,0.728716,0.769241
0.647117,0.768708,0.728643,0.769164
0.647052,0.768643,0.72857,0.769087
0.646988,0.768577,0.728497,0.76901
0.646923,0.768512,0.728424,0.768933
0.646858,0.768447,0.728351,0.768856
0.646794,0.768382,0.728279,0.768779
0.646729,0.768317,0.728206,0.768702
0.646664,0.768252,0.728133,0.768625
0.6466,0.768187,0.72806,0.768549
0.646535,0.768122,0.727987,0.768472
0.64647,0.768057,0.727915,0.768395
0.646406,0.767992,0.727842,0.768318
0.646341,0.767927,0.727769,0.768241
0.646276,0.767862,0.727696,0.768164
0.646212,0.767797,0.727623,0.768088
0.646147,0.767732,0.727551,0.768011
0.646082,0.767667,0.727478,0.767934
0.646018,0.767602,0.727405,0.767857
0.645953,0.767537,0.727332,0.76778
0.645889,0.767473,0.72726,0.767704
0.645824,0.767408,0.727187,0.767627
0.645759,0.767343,0.727114,0.76755
0.645695,0.767278,0.727042,0.767473
0.64563,0.767213,0.726969,0.767397
0.645566,0.767148,0.726896,0.76732
0.645501,0.767083,0.726823,0.767243
0.645437,0.767018,0.726751,0.767166
0.645372,0.766953,0.726678,0.76709
0.645308,0.766888,0.726605,0.767013
0.645243,0.766823,0.726533,0.766936
0.645179,0.766758,0.72646,0.76686
0.645114,0.766694,0.726387,0.766783
0.645049,0.766629,0.726315,0.766706
0.644985,0.766564,0.726242,0.766629
0.64492,0.766499,0.72617,0.766553
0.644856,0.766434,0.726097,0.766476
0.644791,0.766369,0.726024,0.7664
0.644727,0.766304,0.725952,0.766323
0.644663,0.766239,0.725879,0.766246
0.644598,0.766175,0.725807,0.76617
0.644534,0.76611,0.725734,0.766093
0.644469,0.766045,0.725661,0.766016
0.644405,0.76598,0.725589,0.76594
0.64434,0.765915,0.725516,0.765863
0.644276,0.765851,0.725444,0.765787
0.644211,0.765786,0.725371,0.76571
0.643825,0.765721,0.725299,0.765633
0.643439,0.765656,0.725226,0.765557
0.643053,0.765591,0.725154,0.76548
0.642667,0.765527,0.725081,0.765404
0.642281,0.765462,0.725009,0.765327
0.641896,0.765397,0.724936,0.765251
0.641511,0.765332,0.724864,0.765174
0.641126,0.765267,0.724791,0.765098
0.640741,0.765203,0.724719,0.765021
0.640357,0.765138,0.724646,0.764945
0.639973,0.765073,0.724574,0.764868
0.639589,0.765008,0.724501,0.764792
0.639205,0.764944,0.724429,0.764715
0.638822,0.764879,0.724356,0.764639
0.638438,0.764814,0.724284,0.764562
0.638055,0.764749,0.724211,0.764486
0.637672,0.764685,0.724139,0.764409
0.63729,0.76462,0.724067,0.764333
0.636908,0.764555,0.723994,0.764256
0.636525,0.764491,0.723922,0.76418
0.636144,0.764426,0.723849,0.764104
0.635762,0.764361,0.723777,0.764027
0.63538,0.764297,0.723705,0.763951
0.634999,0.764232,0.723632,0.763874
0.634618,0.764167,0.72356,0.763798
0.634238,0.764103,0.723488,0.763722
0.633857,0.764038,0.723415,0.763645
0.633477,0.763973,0.723343,0.763569
0.633097,0.763909,0.723271,0.763493
0.632717,0.763844,0.723198,0.763416
0.632337,0.763779,0.723126,0.76334
0.631958,0.763715,0.723054,0.763264
0.631579,0.76365,0.722981,0.763187
0.631516,0.763585,0.722909,0.763111
0.631452,0.763521,0.722837,0.763035
0.631389,0.763456,0.722764,0.762958
0.631326,0.763392,0.722692,0.762882
0.631263,0.763327,0.72262,0.762806
0.6312,0.763262,0.722548,0.762729
0.631137,0.763198,0.722475,0.762653
0.631074,0.763133,0.722403,0.762577
0.631011,0.763069,0.722331,0.762501
0.630947,0.763004,0.722259,0.762424
0.630884,0.762939,0.722186,0.762348
0.630821,0.762875,0.722114,0.762272
0.630758,0.76281,0.722042,0.762196
0.630695,0.762746,0.72197,0.762119
0.630632,0.762681,0.721898,0.762043
0.630569,0.762617,0.721825,0.761967
0.630506,0.762552,0.721753,0.761891
0.630443,0.762488,0.721681,0.761815
0.63038,0.762423,0.721609,0.761738
0.630317,0.762359,0.721537,0.761662
0.630254,0.762294,0.721465,0.761586
0.630191,0.76223,0.721392,0.76151
0.630128,0.762165,0.72132,0.761434
0.630065,0.762101,0.721248,0.761358
0.630002,0.762036,0.721176,0.761282
0.629939,0.761972,0.721104,0.761205
0.629876,0.761907,0.721032,0.761129
0.629813,0.761843,0.72096,0.761053
0.62975,0.761778,0.720888,0.760977
0.629687,0.761714,0.720816,0.760901
0.629624,0.761649,0.720743,0.760825
0.629561,0.761585,0.720671,0.760749
0.629498,0.76152,0.720599,0.760673
0.629435,0.761456,0.720527,0.760597
0.629372,0.761391,0.720455,0.760521
0.629309,0.761327,0.720383,0.760445
0.629246,0.761263,0.720311,0.760368
0.629183,0.761198,0.720239,0.760292
0.62912,0.761134,0.720167,0.760216
0.629057,0.761069,0.720095,0.76014
0.628994,0.761005,0.720023,0.760064
0.628932,0.760941,0.719951,0.759988
0.628869,0.760876,0.719879,0.759912
0.628806,0.760812,0.719807,0.759836
0.628743,0.760747,0.719735,0.75976
0.62868,0.760683,0.719663,0.759684
0.628617,0.760619,0.719591,0.759608
0.628554,0.760554,0.719519,0.759533
0.628491,0.76049,0.719447,0.759457
0.628429,0.760426,0.719375,0.759381
0.628366,0.760361,0.719303,0.759305
0.628303,0.760297,0.719231,0.759229
0.62824,0.760233,0.719159,0.759153
0.628177,0.760168,0.719088,0.759077
0.628114,0.760104,0.719016,0.759001
0.628052,0.76004,0.718944,0.758925
0.627989,0.759975,0.718872,0.758849
0.627926,0.759911,0.7188,0.758773
0.627863,0.759847,0.718728,0.758697
0.6278,0.759782,0.718656,0.758622
0.627738,0.759718,0.718584,0.758546
0.627675,0.759654,0.718512,0.75847
0.627612,0.759589,0.718441,0.758394
0.627549,0.759525,0.718369,0.758318
0.627487,0.759461,0.718297,0.758242
0.627424,0.759397,0.718225,0.758167
0.627361,0.759332,0.718153,0.758091
0.627298,0.759268,0.718081,0.758015
0.627236,0.759204,0.71801,0.757939
0.627173,0.75914,0.717938,0.757863
0.62711,0.759075,0.717866,0.757788
0.627048,0.759011,0.717794,0.757712
0.626985,0.758947,0.717723,0.757636
0.626922,0.758883,0.717651,0.75756
0.626859,0.758818,0.717579,0.757484
0.626797,0.758754,0.717507,0.757409
0.626734,0.75869,0.717435,0.757333
0.626671,0.758626,0.717364,0.757257
0.626609,0.758562,0.717292,0.757181
0.626546,0.758497,0.71722,0.757106
0.626483,0.758433,0.717149,0.75703
0.626421,0.758369,0.717077,0.756954
0.626358,0.758305,0.717005,0.756879
0.626295,0.758241,0.716933,0.756803
0.626233,0.758177,0.716862,0.756727
0.62617,0.758112,0.71679,0.756652
0.626108,0.758048,0.716718,0.756576
0.626045,0.757984,0.716647,0.7565
0.625982,0.75792,0.716575,0.756425
0.62592,0.757856,0.716503,0.756349
0.625857,0.757792,0.716432,0.756273
0.625795,0.757728,0.71636,0.756198
0.625732,0.757663,0.716288,0.756122
0.625669,0.757599,0.716217,0.756047
0.625607,0.757535,0.716145,0.755971
0.625544,0.757471,0.716074,0.755895
0.625482,0.757407,0.716002,0.75582
0.625419,0.757343,0.71593,0.755744
0.625357,0.757279,0.715859,0.755669
0.625294,0.757215,0.715787,0.755593
0.625232,0.757151,0.715716,0.755517
0.625169,0.757087,0.715644,0.755442
0.625107,0.757022,0.715572,0.755366
0.625044,0.756958,0.715501,0.755291
0.624982,0.756894,0.715429,0.755215
0.624919,0.75683,0.715358,0.75514
0.624857,0.756766,0.715286,0.755064
0.624794,0.756702,0.715215,0.754989
0.624732,0.756638,0.715143,0.754913
0.624669,0.756574,0.715072,0.754838
0.624607,0.75651,0.715,0.754762
0.624544,0.756446,0.714929,0.754687
0.624482,0.756382,0.714857,0.754611
0.624419,0.756318,0.714786,0.754536
0.624357,0.756254,0.714714,0.75446
0.624294,0.75619,0.714643,0.754385
0.624232,0.756126,0.714571,0.75431
0.62417,0.756062,0.7145,0.754234
0.624107,0.755998,0.714428,0.754159
0.624045,0.755934,0.714357,0.754083
0.623982,0.75587,0.714286,0.754008
0.62392,0.755806,0.714214,0.753932
0.623858,0.755742,0.714143,0.753857
0.623795,0.755678,0.714071,0.753782
0.623733,0.755614,0.714,0.753706
0.62367,0.75555,0.713928,0.753631
0.623608,0.755486,0.713857,0.753556
0.623546,0.755423,0.713786,0.75348
0.623483,0.755359,0.713714,0.753405
0.623421,0.755295,0.713643,0.75333
0.623359,0.755231,0.713572,0.753254
0.623296,0.755167,0.7135,0.753179
0.623234,0.755103,0.713429,0.753104
0.623172,0.755039,0.713358,0.753028
0.623109,0.754975,0.713286,0.752953
0.623047,0.754911,0.713215,0.752878
0.622985,0.754847,0.713144,0.752802
0.622922,0.754784,0.713072,0.752727
0.62286,0.75472,0.713001,0.752652
0.622798,0.754656,0.71293,0.752577
0.622736,0.754592,0.712858,0.752501
0.622673,0.754528,0.712787,0.752426
0.622611,0.754464,0.712716,0.752351
0.622549,0.7544,0.712644,0.752276
0.622486,0.754337,0.712573,0.7522
0.622424,0.754273,0.712502,0.752125
0.622362,0.754209,0.712431,0.75205
0.6223,0.754145,0.712359,0.751975
0.622238,0.754081,0.712288,0.751899
0.622175,0.754017,0.712217,0.751824
0.622113,0.753954,0.712146,0.751749
0.622051,0.75389,0.712075,0.751674
0.621989,0.753826,0.712003,0.751599
0.621926,0.753762,0.711932,0.751524
0.621864,0.753698,0.711861,0.751448
0.621802,0.753635,0.71179,0.751373
0.62174,0.753571,0.711719,0.751298
0.621678,0.753507,0.711647,0.751223
0.621616,0.753443,0.711576,0.751148
0.621553,0.75338,0.711505,0.751073
0.621491,0.753316,0.711434,0.750998
0.621429,0.753252,0.711363,0.750923
0.621367,0.753188,0.711292,0.750847
0.621305,0.753125,0.711221,0.750772
0.621243,0.753061,0.711149,0.750697
0.621181,0.752997,0.711078,0.750622
0.621118,0.752933,0.711007,0.750547
0.621056,0.75287,0.710936,0.750472
0.620994,0.752806,0.710865,0.750397
0.620932,0.752742,0.710794,0.750322
0.62087,0.752679,0.710723,0.750247
0.620808,0.752615,0.710652,0.750172
0.620746,0.752551,0.710581,0.750097
0.620684,0.752487,0.71051,0.750022
0.620622,0.752424,0.710439,0.749947
0.62056,0.75236,0.710368,0.749872
0.620498,0.752296,0.731605,0.749797
0.620125,0.752233,0.731532,0.749722
0.619753,0.752169,0.731459,0.749647
0.619381,0.752105,0.731386,0.749572
0.61901,0.752042,0.731313,0.749497
0.618639,0.751978,0.73124,0.749422
0.618267,0.751915,0.731167,0.749347
0.617896,0.751851,0.731093,0.749272
0.617526,0.751787,0.73102,0.749197
0.617155,0.751724,0.730947,0.749122
0.616785,0.75166,0.730874,0.749048
0.616415,0.751596,0.730801,0.748973
0.616045,0.751533,0.730728,0.748898
0.615676,0.751469,0.730655,0.748823
0.615306,0.751406,0.730582,0.748748
0.614937,0.751342,0.730509,0.748673
0.614568,0.751279,0.730436,0.748598
0.614199,0.751215,0.730363,0.748523
0.613831,0.751151,0.73029,0.748448
0.613463,0.751088,0.730217,0.748374
0.613095,0.751024,0.730144,0.748299
0.612727,0.750961,0.730071,0.748224
0.612359,0.750897,0.729998,0.748149
0.611992,0.750834,0.729925,0.748074
0.611625,0.75077,0.729852,0.748
0.611258,0.750707,0.729779,0.747925
0.610891,0.750643,0.729706,0.74785
0.610524,0.750579,0.729633,0.747775
0.610158,0.750516,0.72956,0.7477
0.609792,0.750452,0.729487,0.747626
0.609426,0.750389,0.729414,0.747551
0.609061,0.750325,0.729341,0.747476
0.608695,0.750262,0.729268,0.747401
0.60833,0.750198,0.729195,0.747327
0.607965,0.750135,0.729122,0.747252
0.6076,0.750071,0.729049,0.747177
0.607236,0.750008,0.728976,0.747102
0.606871,0.749945,0.728903,0.747028
0.606507,0.749881,0.72883,0.746953
0.606143,0.749818,0.728758,0.746878
0.60578,0.749754,0.728685,0.746804
0.605416,0.749691,0.728612,0.746729
0.605053,0.749627,0.728539,0.746654
0.60469,0.749564,0.728466,0.74658
0.604327,0.7495,0.728393,0.746505
0.603965,0.749437,0.72832,0.74643
0.603602,0.749374,0.728248,0.746356
0.60324,0.74931,0.728175,0.746281
0.602878,0.749247,0.728102,0.746206
0.602517,0.749183,0.728029,0.746132
0.602155,0.74912,0.727956,0.746057
0.601794,0.749057,0.727884,0.745983
0.601433,0.748993,0.727811,0.745908
0.601072,0.74893,0.727738,0.745833
0.600711,0.748866,0.727665,0.745759
0.600351,0.748803,0.727592,0.745684
0.599991,0.74874,0.72752,0.74561
0.599631,0.748676,0.727447,0.745535
0.599271,0.748613,0.727374,0.745461
0.598912,0.74855,0.727301,0.745386
0.598552,0.748486,0.727229,0.745311
0.598193,0.748423,0.727156,0.745237
0.597834,0.74836,0.727083,0.745162
0.597476,0.748296,0.727011,0.745088
0.597117,0.748233,0.726938,0.745013
0.596759,0.74817,0.726865,0.744939
0.596401,0.748106,0.726792,0.744864
0.596043,0.748043,0.72672,0.74479
0.595686,0.74798,0.726647,0.744715
0.595328,0.747916,0.726574,0.744641
0.594971,0.747853,0.726502,0.744566
0.594912,0.74779,0.726429,0.744492
0.594852,0.747726,0.726356,0.744418
0.594793,0.747663,0.726284,0.744343
0.594733,0.7476,0.726211,0.744269
0.594674,0.747537,0.726139,0.744194
0.594614,0.747473,0.726066,0.74412
0.594555,0.74741,0.725993,0.744045
0.594495,0.747347,0.725921,0.743971
0.594436,0.747284,0.725848,0.743897
0.594376,0.74722,0.725776,0.743822
0.594317,0.747157,0.725703,0.743748
0.594257,0.747094,0.72563,0.743673
0.594198,0.747031,0.725558,0.743599
0.594139,0.746968,0.725485,0.743525
0.594079,0.746904,0.725413,0.74345
0.59402,0.746841,0.72534,0.743376
0.59396,0.746778,0.725268,0.743302
0.593901,0.746715,0.725195,0.743227
0.593842,0.746652,0.725123,0.743153
0.593782,0.746588,0.72505,0.743079
0.593723,0.746525,0.724978,0.743004
0.593663,0.746462,0.724905,0.74293
0.593604,0.746399,0.724833,0.742856
0.593545,0.746336,0.72476,0.742782
0.593485,0.746273,0.724688,0.742707
0.593426,0.746209,0.724615,0.742633
0.593367,0.746146,0.724543,0.742559
0.593307,0.746083,0.72447,0.742484
0.593248,0.74602,0.724398,0.74241
0.593189,0.745957,0.724325,0.742336
0.593129,0.745894,0.724253,0.742262
0.59307,0.745831,0.724181,0.742188
0.593011,0.745767,0.724108,0.742113
0.592951,0.745704,0.724036,0.742039
0.592892,0.745641,0.723963,0.741965
0.592833,0.745578,0.723891,0.741891
0.592774,0.745515,0.723819,0.741817
0.592714,0.745452,0.723746,0.741742
0.592655,0.745389,0.723674,0.741668
0.592596,0.745326,0.723601,0.741594
0.592536,0.745263,0.723529,0.74152
0.592477,0.7452,0.723457,0.741446
0.592418,0.745137,0.723384,0.741372
0.592359,0.745074,0.723312,0.741297
0.5923,0.74501,0.72324,0.741223
0.59224,0.744947,0.723167,0.741149
0.592181,0.744884,0.723095,0.741075
0.592122,0.744821,0.723023,0.741001
0.592063,0.744758,0.72295,0.740927
0.592003,0.744695,0.722878,0.740853
0.591944,0.744632,0.722806,0.740779
0.591885,0.744569,0.722734,0.740705
0.591826,0.744506,0.722661,0.740631
0.591767,0.744443,0.722589,0.740556
0.591707,0.74438,0.722517,0.740482
0.591648,0.744317,0.722445,0.740408
0.591589,0.744254,0.722372,0.740334
0.59153,0.744191,0.7223,0.74026
0.591471,0.744128,0.722228,0.740186
0.591412,0.744065,0.722156,0.740112
0.591353,0.744002,0.722083,0.740038
0.591293,0.743939,0.722011,0.739964
0.591234,0.743876,0.721939,0.73989
0.591175,0.743813,0.721867,0.739816
0.591116,0.743751,0.721795,0.739742
0.591057,0.743688,0.721722,0.739668
0.590998,0.743625,0.72165,0.739594
0.590939,0.743562,0.721578,0.73952
0.59088,0.743499,0.721506,0.739446
0.590821,0.743436,0.721434,0.739372
0.590761,0.743373,0.721362,0.739299
0.590702,0.74331,0.72129,0.739225
0.590643,0.743247,0.721217,0.739151
0.590584,0.743184,0.721145,0.739077
0.590525,0.743121,0.721073,0.739003
0.590466,0.743059,0.721001,0.738929
0.590407,0.742996,0.720929,0.738855
0.590348,0.742933,0.720857,0.738781
0.590289,0.74287,0.720785,0.738707
0.59023,0.742807,0.720713,0.738633
0.590171,0.742744,0.720641,0.73856
0.590112,0.742681,0.720569,0.738486
0.590053,0.742618,0.720496,0.738412
0.589994,0.742556,0.720424,0.738338
0.589935,0.742493,0.720352,0.738264
0.589876,0.74243,0.72028,0.73819
0.589817,0.742367,0.720208,0.738117
0.589758,0.742304,0.720136,0.738043
0.589699,0.742241,0.720064,0.737969
0.58964,0.742179,0.719992,0.737895
0.589581,0.742116,0.71992,0.737821
0.589522,0.742053,0.719848,0.737748
0.589463,0.74199,0.719776,0.737674
0.589404,0.741927,0.719704,0.7376
0.589345,0.741865,0.719632,0.737526
0.589286,0.741802,0.71956,0.737452
0.589227,0.741739,0.719488,0.737379
0.589168,0.741676,0.719416,0.737305
0.58911,0.741614,0.719345,0.737231
0.589051,0.741551,0.719273,0.737158
0.588992,0.741488,0.719201,0.737084
0.588933,0.741425,0.719129,0.73701
0.588874,0.741363,0.719057,0.736936
0.588815,0.7413,0.718985,0.736863
0.588756,0.741237,0.718913,0.736789
0.588697,0.741174,0.718841,0.736715
0.588638,0.741112,0.718769,0.736642
0.58858,0.741049,0.718697,0.736568
0.588521,0.740986,0.718626,0.736494
0.588462,0.740924,0.718554,0.736421
0.588403,0.740861,0.718482,0.736347
0.588344,0.740798,0.71841,0.736273
0.588285,0.740735,0.718338,0.7362
0.588227,0.740673,0.718266,0.736126
0.588168,0.74061,0.718194,0.736053
0.588109,0.740547,0.718123,0.735979
0.58805,0.740485,0.718051,0.735905
0.587991,0.740422,0.717979,0.735832
0.587932,0.740359,0.717907,0.735758
0.587874,0.740297,0.717835,0.735685
0.587815,0.740234,0.717764,0.735611
0.587756,0.740171,0.717692,0.735537
0.587697,0.740109,0.71762,0.735464
0.587639,0.740046,0.717548,0.73539
0.58758,0.739984,0.717477,0.735317
0.587521,0.739921,0.717405,0.735243
0.587462,0.739858,0.717333,0.73517
0.587404,0.739796,0.717261,0.735096
0.587345,0.739733,0.71719,0.735023
0.587286,0.739671,0.717118,0.734949
0.587227,0.739608,0.717046,0.734876
0.587169,0.739545,0.716975,0.734802
0.58711,0.739483,0.716903,0.734729
0.587051,0.73942,0.716831,0.734655
0.586992,0.739358,0.716759,0.734582
0.586934,0.739295,0.716688,0.734508
