energy,productivity,fun,hunger
0.706885,0.652497,0.757792,0.649369
0.706814,0.652483,0.780448,0.649304
0.70639,0.65247,0.78037,0.64924
0.705966,0.652457,0.780292,0.649175
0.705543,0.652444,0.780214,0.64911
0.705119,0.652431,0.780136,0.649045
0.704696,0.652418,0.780058,0.64898
0.704274,0.652405,0.77998,0.648915
0.703851,0.652392,0.779902,0.64885
0.703429,0.652379,0.779824,0.648785
0.703007,0.652366,0.779746,0.64872
0.702585,0.652353,0.779668,0.648655
0.702163,0.65234,0.77959,0.648591
0.701742,0.652327,0.779512,0.648526
0.701321,0.652314,0.779434,0.648461
0.7009,0.652301,0.779356,0.648396
0.70048,0.652288,0.779278,0.648331
0.70006,0.652275,0.7792,0.648266
0.69964,0.652262,0.779122,0.648202
0.69922,0.652248,0.779045,0.648137
0.6988,0.652235,0.778967,0.648072
0.698381,0.652222,0.778889,0.648007
0.697962,0.652209,0.778811,0.647942
0.697543,0.652196,0.778733,0.647877
0.697125,0.652183,0.778655,0.647813
0.696707,0.65217,0.778577,0.647748
0.696289,0.652157,0.778499,0.647683
0.695871,0.652144,0.778422,0.647618
0.695453,0.652131,0.778344,0.647554
0.695036,0.652118,0.778266,0.647489
0.694619,0.652105,0.778188,0.647424
0.694202,0.652092,0.77811,0.647359
0.693786,0.652079,0.778032,0.647295
0.69337,0.652066,0.777955,0.64723
0.692954,0.652053,0.777877,0.647165
0.692538,0.65204,0.777799,0.6471
0.692123,0.652027,0.777721,0.647036
0.691707,0.652014,0.777643,0.646971
0.691292,0.652,0.777566,0.646906
0.690878,0.651987,0.777488,0.646842
0.690463,0.651974,0.77741,0.646777
0.690049,0.651961,0.777332,0.646712
0.689635,0.651948,0.777255,0.646648
0.689221,0.651935,0.777177,0.646583
0.688808,0.651922,0.777099,0.646518
0.688394,0.651909,0.777022,0.646454
0.687981,0.651896,0.776944,0.646389
0.687569,0.651883,0.776866,0.646324
0.687156,0.65187,0.776788,0.64626
0.686744,0.651857,0.776711,0.646195
0.686332,0.651844,0.776633,0.64613
0.68592,0.651831,0.776555,0.646066
0.685509,0.651818,0.776478,0.646001
0.685097,0.651805,0.7764,0.645937
0.684686,0.651792,0.776323,0.645872
0.684275,0.651779,0.776245,0.645807
0.683865,0.651766,0.776167,0.645743
0.683455,0.651753,0.77609,0.645678
0.683045,0.65174,0.776012,0.645614
0.682635,0.651726,0.775934,0.645549
0.682225,0.651713,0.775857,0.645485
0.681816,0.6517,0.775779,0.64542
0.681407,0.651687,0.775702,0.645356
0.680998,0.651674,0.775624,0.645291
0.68059,0.651661,0.775547,0.645226
0.680181,0.651648,0.775469,0.645162
0.679773,0.651635,0.775391,0.645097
0.679365,0.651622,0.775314,0.645033
0.678958,0.651609,0.775236,0.644968
0.67855,0.651596,0.775159,0.644904
0.678143,0.651583,0.775081,0.644839
0.677736,0.65157,0.775004,0.644775
0.677669,0.651557,0.774926,0.64471
0.677601,0.651544,0.798094,0.644646
0.677194,0.651531,0.798014,0.644582
0.676788,0.651518,0.797935,0.644517
0.676382,0.651505,0.797855,0.644453
0.675976,0.651492,0.797775,0.644388
0.675571,0.651479,0.797695,0.644324
0.675165,0.651466,0.797616,0.644259
0.67476,0.651453,0.797536,0.644195
0.674356,0.65144,0.797456,0.64413
0.673951,0.651427,0.797376,0.644066
0.673547,0.651414,0.797297,0.644002
0.673142,0.6514,0.797217,0.643937
0.672739,0.651387,0.797137,0.643873
0.672335,0.651374,0.797057,0.643808
0.671932,0.651361,0.796978,0.643744
0.671529,0.651348,0.796898,0.64368
0.671126,0.651335,0.796818,0.643615
0.670723,0.651322,0.796739,0.643551
0.670656,0.651309,0.796659,0.643487
0.670589,0.651296,0.820477,0.643422
0.670187,0.651283,0.820395,0.643358
0.669784,0.65127,0.820313,0.643294
0.669383,0.651257,0.820231,0.643229
0.668981,0.651244,0.820149,0.643165
0.66858,0.651231,0.820067,0.643101
0.668179,0.651218,0.819985,0.643036
0.667778,0.651205,0.819903,0.642972
0.667377,0.651192,0.819821,0.642908
0.666977,0.651179,0.819739,0.642843
0.666577,0.651166,0.819657,0.642779
0.666177,0.651153,0.819575,0.642715
0.665777,0.65114,0.819493,0.642651
0.665378,0.651127,0.819411,0.642586
0.664978,0.651114,0.819329,0.642522
0.664579,0.651101,0.819247,0.642458
0.664181,0.651088,0.819165,0.642394
0.663782,0.651075,0.819083,0.642329
0.663384,0.651062,0.819001,0.642265
0.662986,0.651049,0.818919,0.642201
0.662588,0.651036,0.818837,0.642137
0.662191,0.651022,0.818755,0.642072
0.661793,0.651009,0.818674,0.642008
0.661727,0.650996,0.818592,0.641944
0.661661,0.650983,0.843065,0.64188
0.661264,0.65097,0.842981,0.641816
0.660867,0.650957,0.842896,0.641751
0.660471,0.650944,0.842812,0.641687
0.660075,0.650931,0.842728,0.641623
0.659679,0.650918,0.842644,0.641559
0.659283,0.650905,0.842559,0.641495
0.658887,0.650892,0.842475,0.641431
0.658492,0.650879,0.842391,0.641367
0.658097,0.650866,0.842307,0.641302
0.657702,0.650853,0.842222,0.641238
0.657308,0.65084,0.842138,0.641174
0.656913,0.650827,0.842054,0.64111
0.656519,0.650814,0.84197,0.641046
0.656125,0.650801,0.841886,0.640982
0.655732,0.650788,0.841801,0.640918
0.655338,0.650775,0.841717,0.640854
0.654945,0.650762,0.841633,0.64079
0.654552,0.650749,0.841549,0.640725
0.654487,0.650736,0.841465,0.640661
0.654421,0.650723,0.866622,0.640597
0.654028,0.65071,0.866535,0.640533
0.653636,0.650697,0.866449,0.640469
0.653244,0.650684,0.866362,0.640405
0.652852,0.650671,0.866275,0.640341
0.65246,0.650658,0.866189,0.640277
0.652069,0.650645,0.866102,0.640213
0.651678,0.650632,0.866016,0.640149
0.651287,0.650619,0.865929,0.640085
0.650896,0.650606,0.865842,0.640021
0.650505,0.650593,0.865756,0.639957
0.650115,0.65058,0.865669,0.639893
0.649725,0.650567,0.865583,0.639829
0.649335,0.650554,0.865496,0.639765
0.648946,0.650541,0.865409,0.639701
0.648556,0.650528,0.865323,0.639637
0.648167,0.650515,0.865236,0.639573
0.647779,0.650501,0.86515,0.639509
0.64739,0.650488,0.865063,0.639445
0.647001,0.650475,0.864977,0.639381
0.646613,0.650462,0.86489,0.639317
0.646225,0.650449,0.864804,0.639253
0.645838,0.650436,0.864717,0.639189
0.64545,0.650423,0.864631,0.639126
0.645063,0.65041,0.864544,0.639062
0.644676,0.650397,0.864458,0.638998
0.644289,0.650384,0.864372,0.638934
0.643903,0.650371,0.864285,0.63887
0.643516,0.650358,0.864199,0.638806
0.64313,0.650345,0.864112,0.638742
0.642744,0.650332,0.864026,0.638678
0.642359,0.650319,0.863939,0.638614
0.641973,0.650306,0.863853,0.638551
0.641588,0.650293,0.863767,0.638487
0.641203,0.65028,0.86368,0.638423
0.640819,0.650267,0.863594,0.638359
0.640434,0.650254,0.863508,0.638295
0.64005,0.650241,0.863421,0.638231
0.639666,0.650228,0.863335,0.638168
0.639282,0.650215,0.863249,0.638104
0.638899,0.650202,0.863162,0.63804
0.638515,0.650189,0.863076,0.637976
0.638132,0.650176,0.86299,0.637912
0.637749,0.650163,0.862903,0.637849
0.637367,0.65015,0.862817,0.637785
0.636984,0.650137,0.862731,0.637721
0.636602,0.650124,0.862644,0.637657
0.63622,0.650111,0.862558,0.637593
0.635839,0.650098,0.862472,0.63753
0.635457,0.650085,0.862386,0.637466
0.635076,0.650072,0.862299,0.637402
0.634695,0.650059,0.862213,0.637338
0.634314,0.650046,0.862127,0.637275
0.634251,0.650033,0.862041,0.637211
0.634187,0.65002,0.887813,0.637147
0.633807,0.650007,0.887724,0.637084
0.633427,0.649994,0.887636,0.63702
0.633046,0.649981,0.887547,0.636956
0.632667,0.649968,0.887458,0.636892
0.632287,0.649955,0.887369,0.636829
0.631908,0.649942,0.887281,0.636765
0.631529,0.649929,0.887192,0.636701
0.63115,0.649916,0.887103,0.636638
0.630771,0.649903,0.887015,0.636574
0.630393,0.64989,0.886926,0.63651
0.630014,0.649877,0.886837,0.636447
0.629637,0.649864,0.886748,0.636383
0.629259,0.649851,0.88666,0.636319
0.628881,0.649838,0.886571,0.636256
0.628504,0.649825,0.886482,0.636192
0.628127,0.649812,0.886394,0.636129
0.628064,0.649799,0.886305,0.636065
0.628001,0.649786,0.912803,0.636001
0.627624,0.649773,0.912712,0.635938
0.627248,0.64976,0.91262,0.635874
0.626872,0.649747,0.912529,0.635811
0.626496,0.649734,0.912438,0.635747
0.62612,0.649721,0.912347,0.635683
0.625744,0.649708,0.912255,0.63562
0.625369,0.649695,0.912164,0.635556
0.624993,0.649682,0.912073,0.635493
0.624618,0.649669,0.911982,0.635429
0.624244,0.649656,0.911891,0.635366
0.623869,0.649643,0.911799,0.635302
0.623495,0.64963,0.911708,0.635239
0.623121,0.649617,0.911617,0.635175
0.622747,0.649604,0.911526,0.635112
0.622373,0.649591,0.911435,0.635048
0.622,0.649578,0.911344,0.634984
0.621627,0.649565,0.911252,0.634921
0.621254,0.649552,0.911161,0.634858
0.620881,0.649539,0.91107,0.634794
0.620509,0.649526,0.910979,0.634731
0.620136,0.649513,0.910888,0.634667
0.619764,0.6495,0.910797,0.634604
0.619393,0.649487,0.910706,0.63454
0.619021,0.649474,0.910615,0.634477
0.61865,0.649461,0.910524,0.634413
0.618278,0.649448,0.910433,0.63435
0.617907,0.649435,0.910342,0.634286
0.617537,0.649422,0.910251,0.634223
0.617166,0.649409,0.91016,0.63416
0.616796,0.649396,0.910069,0.634096
0.616426,0.649383,0.909978,0.634033
0.616056,0.64937,0.909887,0.633969
0.615686,0.649357,0.909796,0.633906
0.615317,0.649344,0.909705,0.633842
0.614948,0.649331,0.909614,0.633779
0.614579,0.649318,0.909523,0.633716
0.61421,0.649305,0.909432,0.633652
0.613842,0.649292,0.909341,0.633589
0.613474,0.649279,0.90925,0.633526
0.613105,0.649266,0.909159,0.633462
0.612738,0.649253,0.909068,0.633399
0.61237,0.64924,0.908977,0.633336
0.612003,0.649227,0.908886,0.633272
0.611635,0.649214,0.908795,0.633209
0.611269,0.649201,0.908704,0.633146
0.610902,0.649188,0.908614,0.633082
0.610535,0.649175,0.908523,0.633019
0.610474,0.649162,0.908432,0.632956
0.610413,0.649149,0.935591,0.632892
0.610047,0.649136,0.935498,0.632829
0.609681,0.649123,0.935404,0.632766
0.609315,0.64911,0.935311,0.632703
0.60895,0.649097,0.935217,0.632639
0.608584,0.649084,0.935124,0.632576
0.608219,0.649071,0.93503,0.632513
0.607854,0.649058,0.934937,0.63245
0.60749,0.649045,0.934843,0.632386
0.607125,0.649032,0.93475,0.632323
0.606761,0.649019,0.934656,0.63226
0.606397,0.649006,0.934563,0.632197
0.606033,0.648993,0.934469,0.632133
0.605669,0.64898,0.934376,0.63207
0.605306,0.648967,0.934282,0.632007
0.604943,0.648954,0.934189,0.631944
0.60458,0.648941,0.934095,0.631881
0.604217,0.648928,0.934002,0.631817
0.603855,0.648915,0.933909,0.631754
0.603492,0.648902,0.933815,0.631691
0.60313,0.648889,0.933722,0.631628
0.602769,0.648876,0.933628,0.631565
0.602407,0.648863,0.933535,0.631501
0.602347,0.64885,0.933442,0.631438
0.602286,0.648837,0.961349,0.631375
0.601925,0.648824,0.961253,0.631312
0.601564,0.648811,0.961157,0.631249
0.601203,0.648798,0.96106,0.631186
0.600842,0.648785,0.960964,0.631123
0.600482,0.648772,0.960868,0.63106
0.600122,0.648759,0.960772,0.630996
0.599762,0.648746,0.960676,0.630933
0.599402,0.648733,0.96058,0.63087
0.599042,0.64872,0.960484,0.630807
0.598683,0.648707,0.960388,0.630744
0.598324,0.648694,0.960292,0.630681
0.597965,0.648681,0.960196,0.630618
0.597606,0.648668,0.9601,0.630555
0.597247,0.648655,0.960004,0.630492
0.596889,0.648642,0.959908,0.630429
0.596531,0.648629,0.959812,0.630366
0.596173,0.648616,0.959716,0.630303
0.595815,0.648603,0.95962,0.63024
0.595458,0.64859,0.959524,0.630177
0.595101,0.648577,0.959428,0.630114
0.595041,0.648564,0.959332,0.630051
0.594982,0.648551,0.988013,0.629988
0.594625,0.648538,0.987914,0.629925
0.594268,0.648525,0.987816,0.629862
0.593911,0.648513,0.987717,0.629799
0.593555,0.6485,0.987618,0.629736
0.593199,0.648487,0.987519,0.629673
0.592843,0.648474,0.987421,0.62961
0.592487,0.648461,0.987322,0.629547
0.592132,0.648448,0.987223,0.629484
0.591777,0.648435,0.987124,0.629421
0.591422,0.648422,0.987026,0.629358
0.591067,0.648409,0.986927,0.629295
0.590712,0.648396,0.986828,0.629232
0.590358,0.648383,0.98673,0.629169
0.590299,0.64837,0.986631,0.629106
0.59024,0.648357,1,0.629043
0.589886,0.648344,0.9999,0.62898
0.589532,0.648331,0.9998,0.628918
0.589178,0.648318,0.9997,0.628855
0.588825,0.648305,0.9996,0.628792
0.588471,0.648292,0.9995,0.628729
0.588118,0.648279,0.9994,0.628666
0.587765,0.648266,0.9993,0.628603
0.587413,0.648253,0.9992,0.62854
0.58706,0.64824,0.9991,0.628477
0.586708,0.648227,0.999,0.628415
0.586356,0.648214,0.998901,0.628352
0.586004,0.648201,0.998801,0.628289
0.585653,0.648188,0.998701,0.628226
0.585301,0.648175,0.998601,0.628163
0.58495,0.648162,0.998501,0.6281
0.584599,0.648149,0.998401,0.628038
0.584249,0.648136,0.998301,0.627975
0.583898,0.648123,0.998202,0.627912
0.583548,0.64811,0.998102,0.627849
0.583198,0.648097,0.998002,0.627786
0.582848,0.648084,0.997902,0.627724
0.582498,0.648071,0.997802,0.627661
0.582149,0.648058,0.997703,0.627598
0.581799,0.648045,0.997603,0.627535
0.58145,0.648032,0.997503,0.627473
0.581102,0.648019,0.997403,0.62741
0.580753,0.648006,0.997304,0.627347
0.580404,0.647994,0.997204,0.627284
0.580056,0.647981,0.997104,0.627222
0.579708,0.647968,0.997004,0.627159
0.57936,0.647955,0.996905,0.627096
0.579013,0.647942,0.996805,0.627033
0.578665,0.647929,0.996705,0.626971
0.578318,0.647916,0.996606,0.626908
0.577971,0.647903,0.996506,0.626845
0.577625,0.64789,0.996406,0.626783
0.577278,0.647877,0.996307,0.62672
0.576932,0.647864,0.996207,0.626657
0.576586,0.647851,0.996107,0.626595
0.57624,0.647838,0.996008,0.626532
0.575894,0.647825,0.995908,0.626469
0.575548,0.647812,0.995809,0.626407
0.575203,0.647799,0.995709,0.626344
0.574858,0.647786,0.995609,0.626281
0.574513,0.647773,0.99551,0.626219
0.574168,0.64776,0.99541,0.626156
0.573824,0.647747,0.995311,0.626094
0.573767,0.647734,0.995211,0.626031
0.573709,0.647721,1,0.625968
0.573365,0.647708,0.9999,0.625906
0.573021,0.647695,0.9998,0.625843
0.572677,0.647682,0.9997,0.625781
0.572334,0.647669,0.9996,0.625718
0.57199,0.647656,0.9995,0.625655
0.571647,0.647643,0.9994,0.625593
0.571304,0.64763,0.9993,0.62553
0.570961,0.647618,0.9992,0.625468
0.570619,0.647605,0.9991,0.625405
0.570277,0.647592,0.999,0.625343
0.569934,0.647579,0.998901,0.62528
0.569592,0.647566,0.998801,0.625218
0.569251,0.647553,0.998701,0.625155
0.568909,0.64754,0.998601,0.625093
0.568568,0.647527,0.998501,0.62503
0.568227,0.647514,0.998401,0.624968
0.567886,0.647501,0.998301,0.624905
0.567545,0.647488,0.998202,0.624843
0.567205,0.647475,0.998102,0.62478
0.566864,0.647462,0.998002,0.624718
0.566524,0.647449,0.997902,0.624655
0.566184,0.647436,0.997802,0.624593
0.565845,0.647423,0.997703,0.62453
0.565505,0.64741,0.997603,0.624468
0.565166,0.647397,0.997503,0.624405
0.564827,0.647384,0.997403,0.624343
0.564488,0.647371,0.997304,0.62428
0.564149,0.647358,0.997204,0.624218
0.563811,0.647345,0.997104,0.624156
0.563473,0.647332,0.997004,0.624093
0.563135,0.647319,0.996905,0.624031
0.562797,0.647306,0.996805,0.623968
0.562459,0.647294,0.996705,0.623906
0.562122,0.647281,0.996606,0.623844
0.561784,0.647268,0.996506,0.623781
0.561447,0.647255,0.996406,0.623719
0.561111,0.647242,0.996307,0.623656
0.560774,0.647229,0.996207,0.623594
0.560437,0.647216,0.996107,0.623532
0.560101,0.647203,0.996008,0.623469
0.559765,0.64719,0.995908,0.623407
0.559429,0.647177,0.995809,0.623345
0.559094,0.647164,0.995709,0.623282
0.558758,0.647151,0.995609,0.62322
0.558423,0.647138,0.99551,0.623158
0.558088,0.647125,0.99541,0.623095
0.557753,0.647112,0.995311,0.623033
0.557419,0.647099,0.995211,0.622971
0.557084,0.647086,0.995112,0.622908
0.55675,0.647073,0.995012,0.622846
0.556416,0.64706,0.994913,0.622784
0.556082,0.647047,0.994813,0.622722
0.555748,0.647034,0.994714,0.622659
0.555415,0.647022,0.994614,0.622597
0.555082,0.647009,0.994515,0.622535
0.554749,0.646996,0.994415,0.622473
0.554416,0.646983,0.994316,0.62241
0.554083,0.64697,0.994216,0.622348
0.553751,0.646957,0.994117,0.622286
0.553419,0.646944,0.994018,0.622224
0.553087,0.646931,0.993918,0.622161
0.552755,0.646918,0.993819,0.622099
0.5527,0.646905,0.993719,0.622037
0.552644,0.646892,1,0.621975
0.552313,0.646879,0.9999,0.621913
0.551981,0.646866,0.9998,0.62185
0.55165,0.646853,0.9997,0.621788
0.551319,0.64684,0.9996,0.621726
0.550989,0.646827,0.9995,0.621664
0.550658,0.646814,0.9994,0.621602
0.550328,0.646801,0.9993,0.62154
0.549997,0.646788,0.9992,0.621477
0.549667,0.646776,0.9991,0.621415
0.549338,0.646763,0.999,0.621353
0.549008,0.64675,0.998901,0.621291
0.548679,0.646737,0.998801,0.621229
0.54835,0.646724,0.998701,0.621167
0.548021,0.646711,0.998601,0.621105
0.547692,0.646698,0.998501,0.621042
0.547363,0.646685,0.998401,0.62098
0.547035,0.646672,0.998301,0.620918
0.546707,0.646659,0.998202,0.620856
0.546379,0.646646,0.998102,0.620794
0.546324,0.646633,0.998002,0.620732
0.546269,0.64662,1,0.62067
0.545942,0.646607,0.9999,0.620608
0.545614,0.646594,0.9998,0.620546
0.545287,0.646581,0.9997,0.620484
0.54496,0.646568,0.9996,0.620422
0.544633,0.646555,0.9995,0.62036
0.544306,0.646543,0.9994,0.620298
0.543979,0.64653,0.9993,0.620236
0.543653,0.646517,0.9992,0.620174
0.543327,0.646504,0.9991,0.620112
0.543001,0.646491,0.999,0.62005
0.542675,0.646478,0.998901,0.619988
0.54235,0.646465,0.998801,0.619926
0.542024,0.646452,0.998701,0.619864
0.541699,0.646439,0.998601,0.619802
0.541374,0.646426,0.998501,0.61974
0.541049,0.646413,0.998401,0.619678
0.540995,0.6464,0.998301,0.619616
0.540941,0.646387,1,0.619554
0.540616,0.646374,0.9999,0.619492
0.540292,0.646361,0.9998,0.61943
0.539968,0.646348,0.9997,0.619368
0.539644,0.646336,0.9996,0.619306
0.53932,0.646323,0.9995,0.619244
0.538997,0.64631,0.9994,0.619182
0.538673,0.646297,0.9993,0.61912
0.53835,0.646284,0.9992,0.619058
0.538027,0.646271,0.9991,0.618996
0.537704,0.646258,0.999,0.618934
0.537382,0.646245,0.998901,0.618873
0.537059,0.646232,0.998801,0.618811
0.536737,0.646219,0.998701,0.618749
0.536415,0.646206,0.998601,0.618687
0.536093,0.646193,0.998501,0.618625
0.535772,0.64618,0.998401,0.618563
0.53545,0.646167,0.998301,0.618501
0.535129,0.646154,0.998202,0.618439
0.534808,0.646142,0.998102,0.618378
0.534487,0.646129,0.998002,0.618316
0.534166,0.646116,0.997902,0.618254
0.533846,0.646103,0.997802,0.618192
0.533526,0.64609,0.997703,0.61813
0.533206,0.646077,0.997603,0.618068
0.532886,0.646064,0.997503,0.618007
0.532566,0.646051,0.997403,0.617945
0.532246,0.646038,0.997304,0.617883
0.531927,0.646025,0.997204,0.617821
0.531608,0.646012,0.997104,0.617759
0.531289,0.645999,0.997004,0.617698
0.53097,0.645986,0.996905,0.617636
0.530652,0.645973,0.996805,0.617574
0.530333,0.64596,0.996705,0.617512
0.530015,0.645948,0.996606,0.617451
0.529697,0.645935,0.996506,0.617389
0.529379,0.645922,0.996406,0.617327
0.529062,0.645909,0.996307,0.617265
0.528744,0.645896,0.996207,0.617204
0.528427,0.645883,0.996107,0.617142
0.52811,0.64587,0.996008,0.61708
0.527793,0.645857,0.995908,0.617019
0.527477,0.645844,0.995809,0.616957
0.527424,0.645831,0.995709,0.616895
0.527371,0.645818,1,0.616833
0.527055,0.645805,0.9999,0.616772
0.526739,0.645792,0.9998,0.61671
0.526423,0.64578,0.9997,0.616648
0.526107,0.645767,0.9996,0.616587
0.525791,0.645754,0.9995,0.616525
0.525476,0.645741,0.9994,0.616463
0.52516,0.645728,0.9993,0.616402
0.524845,0.645715,0.9992,0.61634
0.52453,0.645702,0.9991,0.616279
0.524216,0.645689,0.999,0.616217
0.523901,0.645676,0.998901,0.616155
0.523587,0.645663,0.998801,0.616094
0.523273,0.64565,0.998701,0.616032
0.522959,0.645637,0.998601,0.61597
0.522645,0.645624,0.998501,0.615909
0.522332,0.645612,0.998401,0.615847
0.522018,0.645599,0.998301,0.615786
0.521705,0.645586,0.998202,0.615724
0.521392,0.645573,0.998102,0.615663
0.521079,0.64556,0.998002,0.615601
0.520767,0.645547,0.997902,0.615539
0.520454,0.645534,0.997802,0.615478
0.520142,0.645521,0.997703,0.615416
0.51983,0.645508,0.997603,0.615355
0.519518,0.645495,0.997503,0.615293
0.519206,0.645482,0.997403,0.615232
0.518895,0.645469,0.997304,0.61517
0.518583,0.645456,0.997204,0.615109
0.518272,0.645444,0.997104,0.615047
0.517961,0.645431,0.997004,0.614986
0.517651,0.645418,0.996905,0.614924
0.517599,0.645405,0.996805,0.614863
0.517547,0.645392,1,0.614801
0.517237,0.645379,0.9999,0.61474
0.516926,0.645366,0.9998,0.614678
0.516616,0.645353,0.9997,0.614617
0.516306,0.64534,0.9996,0.614555
0.515996,0.645327,0.9995,0.614494
0.515687,0.645314,0.9994,0.614432
0.515378,0.645301,0.9993,0.614371
0.515068,0.645289,0.9992,0.61431
0.514759,0.645276,0.9991,0.614248
0.51445,0.645263,0.999,0.614187
0.514142,0.64525,0.998901,0.614125
0.513833,0.645237,0.998801,0.614064
0.513525,0.645224,0.998701,0.614002
0.513217,0.645211,0.998601,0.613941
0.512909,0.645198,0.998501,0.61388
0.512601,0.645185,0.998401,0.613818
0.512294,0.645172,0.998301,0.613757
0.511986,0.645159,0.998202,0.613696
