energy,productivity,fun,hunger
0.785901,0.817403,0.514462,0.64996
0.785822,0.817356,0.529842,0.649895
0.785351,0.81731,0.545683,0.64983
0.784879,0.817263,0.561997,0.649765
0.784409,0.817216,0.578799,0.6497
0.783938,0.817169,0.596104,0.649635
0.783468,0.817123,0.613926,0.64957
0.782998,0.817076,0.63228,0.649506
0.782528,0.817029,0.651183,0.649441
0.782058,0.816983,0.670652,0.649376
0.781589,0.816936,0.690702,0.649311
0.78112,0.816889,0.711352,0.649246
0.780652,0.816842,0.732619,0.649181
0.780183,0.816796,0.732546,0.649116
0.779715,0.816749,0.732473,0.649051
0.779247,0.816702,0.7324,0.648986
0.77878,0.816656,0.732326,0.648921
0.778313,0.816609,0.732253,0.648856
0.777846,0.816562,0.73218,0.648791
0.777379,0.816515,0.732107,0.648727
0.776913,0.816469,0.732034,0.648662
0.776447,0.816422,0.73196,0.648597
0.775981,0.816375,0.731887,0.648532
0.775515,0.816329,0.731814,0.648467
0.77505,0.816282,0.731741,0.648402
0.774585,0.816235,0.731668,0.648337
0.77412,0.816189,0.731594,0.648273
0.773656,0.816142,0.731521,0.648208
0.773192,0.816095,0.731448,0.648143
0.772728,0.816049,0.731375,0.648078
0.772264,0.816002,0.731302,0.648013
0.771801,0.815955,0.731229,0.647948
0.771338,0.815909,0.731156,0.647884
0.770875,0.815862,0.731083,0.647819
0.770413,0.815815,0.731009,0.647754
0.76995,0.815769,0.730936,0.647689
0.769488,0.815722,0.730863,0.647625
0.769411,0.815675,0.73079,0.64756
0.769334,0.815629,0.730717,0.647495
0.769258,0.815582,0.730644,0.64743
0.769181,0.815535,0.730571,0.647366
0.769104,0.815489,0.730498,0.647301
0.769027,0.815442,0.730425,0.647236
0.76895,0.815395,0.730352,0.647171
0.768873,0.815349,0.730279,0.647107
0.768796,0.815302,0.730206,0.647042
0.768719,0.815256,0.730133,0.646977
0.768642,0.815209,0.73006,0.646913
0.768566,0.815162,0.729987,0.646848
0.768489,0.815116,0.729914,0.646783
0.768412,0.815069,0.729841,0.646718
0.768335,0.815022,0.729768,0.646654
0.768258,0.814976,0.729695,0.646589
0.768181,0.814929,0.729622,0.646524
0.768104,0.814883,0.729549,0.64646
0.768028,0.814836,0.729476,0.646395
0.767951,0.814789,0.729403,0.646331
0.767874,0.814743,0.72933,0.646266
0.767797,0.814696,0.729257,0.646201
0.767721,0.81465,0.729184,0.646137
0.767644,0.814603,0.729111,0.646072
0.767567,0.814557,0.729038,0.646007
0.76749,0.81451,0.728965,0.645943
0.767413,0.814463,0.728892,0.645878
0.767337,0.814417,0.72882,0.645814
0.76726,0.81437,0.728747,0.645749
0.767183,0.814324,0.728674,0.645685
0.767107,0.814277,0.728601,0.64562
0.76703,0.81423,0.728528,0.645555
0.766953,0.814184,0.728455,0.645491
0.766876,0.814137,0.728382,0.645426
0.7668,0.814091,0.72831,0.645362
0.766723,0.814044,0.728237,0.645297
0.766646,0.813998,0.728164,0.645233
0.76657,0.813951,0.728091,0.645168
0.766493,0.813905,0.728018,0.645104
0.766416,0.813858,0.727945,0.645039
0.76634,0.813811,0.727873,0.644975
0.766263,0.813765,0.7278,0.64491
0.766187,0.813718,0.727727,0.644846
0.76611,0.813672,0.727654,0.644781
0.766033,0.813625,0.727582,0.644717
0.765957,0.813579,0.727509,0.644652
0.76588,0.813532,0.727436,0.644588
0.765804,0.813486,0.727363,0.644523
0.765727,0.813439,0.727291,0.644459
0.76565,0.813393,0.727218,0.644394
0.765574,0.813346,0.727145,0.64433
0.765497,0.8133,0.727072,0.644266
0.765421,0.813253,0.727,0.644201
0.765344,0.813207,0.726927,0.644137
0.765268,0.81316,0.726854,0.644072
0.765191,0.813114,0.726782,0.644008
0.765115,0.813067,0.726709,0.643943
0.765038,0.813021,0.726636,0.643879
0.764962,0.812974,0.726564,0.643815
0.764885,0.812928,0.726491,0.64375
0.764809,0.812881,0.726418,0.643686
0.764732,0.812835,0.726346,0.643622
0.764656,0.812788,0.726273,0.643557
0.764579,0.812742,0.7262,0.643493
0.764503,0.812695,0.726128,0.643428
0.764426,0.812649,0.726055,0.643364
0.76435,0.812602,0.725983,0.6433
0.764273,0.812556,0.72591,0.643235
0.764197,0.812509,0.725837,0.643171
0.764121,0.812463,0.725765,0.643107
0.764044,0.812416,0.725692,0.643043
0.763968,0.81237,0.72562,0.642978
0.763891,0.812323,0.725547,0.642914
0.763815,0.812277,0.725475,0.64285
0.763739,0.812231,0.725402,0.642785
0.763662,0.812184,0.725329,0.642721
0.763586,0.812138,0.725257,0.642657
0.763509,0.812091,0.725184,0.642593
0.763433,0.812045,0.725112,0.642528
0.763357,0.811998,0.725039,0.642464
0.76328,0.811952,0.724967,0.6424
0.763204,0.811905,0.724894,0.642336
0.763128,0.811859,0.724822,0.642271
0.763051,0.811813,0.724749,0.642207
0.762975,0.811766,0.724677,0.642143
0.762899,0.81172,0.724604,0.642079
0.762823,0.811673,0.724532,0.642014
0.762746,0.811627,0.72446,0.64195
0.76267,0.81158,0.724387,0.641886
0.762594,0.811534,0.724315,0.641822
0.762517,0.811488,0.724242,0.641758
0.762441,0.811441,0.72417,0.641693
0.762365,0.811395,0.724097,0.641629
0.762289,0.811348,0.724025,0.641565
0.762212,0.811302,0.723953,0.641501
0.762136,0.811256,0.72388,0.641437
0.76206,0.811209,0.723808,0.641373
0.761984,0.811163,0.723735,0.641309
0.761908,0.811116,0.723663,0.641244
0.761831,0.81107,0.723591,0.64118
0.761755,0.811024,0.723518,0.641116
0.761679,0.810977,0.723446,0.641052
0.761603,0.810931,0.723374,0.640988
0.761527,0.810885,0.723301,0.640924
0.761451,0.810838,0.723229,0.64086
0.761374,0.810792,0.723157,0.640796
0.761298,0.810745,0.723084,0.640732
0.761222,0.810699,0.723012,0.640668
0.761146,0.810653,0.72294,0.640603
0.76107,0.810606,0.722867,0.640539
0.760994,0.81056,0.722795,0.640475
0.760918,0.810514,0.722723,0.640411
0.760842,0.810467,0.722651,0.640347
0.760766,0.810421,0.722578,0.640283
0.76069,0.810375,0.722506,0.640219
0.760613,0.810328,0.722434,0.640155
0.760537,0.810282,0.722362,0.640091
0.760461,0.810236,0.722289,0.640027
0.760385,0.810189,0.722217,0.639963
0.760309,0.810143,0.722145,0.639899
0.760233,0.810097,0.722073,0.639835
0.760157,0.81005,0.722,0.639771
0.760081,0.810004,0.721928,0.639707
0.760005,0.809958,0.721856,0.639643
0.759929,0.809911,0.721784,0.639579
0.759853,0.809865,0.721712,0.639515
0.759777,0.809819,0.72164,0.639451
0.759701,0.809772,0.721567,0.639387
0.759625,0.809726,0.721495,0.639323
0.759549,0.80968,0.721423,0.63926
0.759473,0.809633,0.721351,0.639196
0.759397,0.809587,0.721279,0.639132
0.759321,0.809541,0.721207,0.639068
0.759246,0.809494,0.721135,0.639004
0.75917,0.809448,0.721062,0.63894
0.759094,0.809402,0.72099,0.638876
0.759018,0.809356,0.720918,0.638812
0.758942,0.809309,0.720846,0.638748
0.758866,0.809263,0.720774,0.638684
0.75879,0.809217,0.720702,0.638621
0.758714,0.80917,0.72063,0.638557
0.758638,0.809124,0.720558,0.638493
0.758562,0.809078,0.720486,0.638429
0.758487,0.809032,0.720414,0.638365
0.758411,0.808985,0.720342,0.638301
0.758335,0.808939,0.72027,0.638237
0.758259,0.808893,0.720198,0.638174
0.758183,0.808847,0.720126,0.63811
0.758107,0.8088,0.720054,0.638046
0.758032,0.808754,0.719982,0.637982
0.757956,0.808708,0.71991,0.637918
0.75788,0.808662,0.719838,0.637855
0.757804,0.808615,0.719766,0.637791
0.757728,0.808569,0.719694,0.637727
0.757653,0.808523,0.719622,0.637663
0.757577,0.808477,0.71955,0.6376
0.757501,0.80843,0.719478,0.637536
0.757425,0.808384,0.719406,0.637472
0.75735,0.808338,0.719334,0.637408
0.757274,0.808292,0.719262,0.637345
0.757198,0.808245,0.71919,0.637281
0.757122,0.808199,0.719118,0.637217
0.757047,0.808153,0.719046,0.637153
0.756971,0.808107,0.718974,0.63709
0.756895,0.808061,0.718902,0.637026
0.75682,0.808014,0.71883,0.636962
0.756744,0.807968,0.718759,0.636899
0.756668,0.807922,0.718687,0.636835
0.756593,0.807876,0.718615,0.636771
0.756517,0.80783,0.718543,0.636707
0.756441,0.807783,0.718471,0.636644
0.756366,0.807737,0.718399,0.63658
0.75629,0.807691,0.718327,0.636516
0.756214,0.807645,0.718256,0.636453
0.756139,0.807599,0.718184,0.636389
0.756063,0.807552,0.718112,0.636326
0.755988,0.807506,0.71804,0.636262
0.755912,0.80746,0.717968,0.636198
0.755836,0.807414,0.717897,0.636135
0.755761,0.807368,0.717825,0.636071
0.755685,0.807321,0.717753,0.636007
0.75561,0.807275,0.717681,0.635944
0.755534,0.807229,0.717609,0.63588
0.755459,0.807183,0.717538,0.635817
0.755383,0.807137,0.717466,0.635753
0.755307,0.807091,0.717394,0.63569
0.755232,0.807044,0.717322,0.635626
0.755156,0.806998,0.717251,0.635562
0.755081,0.806952,0.717179,0.635499
0.755005,0.806906,0.717107,0.635435
0.75493,0.80686,0.717036,0.635372
0.754854,0.806814,0.716964,0.635308
0.754779,0.806768,0.716892,0.635245
0.754703,0.806721,0.71682,0.635181
0.754628,0.806675,0.716749,0.635118
0.754553,0.806629,0.716677,0.635054
0.754477,0.806583,0.716605,0.634991
0.754402,0.806537,0.716534,0.634927
0.754326,0.806491,0.716462,0.634864
0.754251,0.806445,0.71639,0.6348
0.754175,0.806399,0.716319,0.634737
0.7541,0.806352,0.716247,0.634673
0.754024,0.806306,0.716176,0.63461
0.753949,0.80626,0.716104,0.634546
0.753874,0.806214,0.716032,0.634483
0.753798,0.806168,0.715961,0.634419
0.753723,0.806122,0.715889,0.634356
0.753648,0.806076,0.715818,0.634292
0.753572,0.80603,0.715746,0.634229
0.753497,0.805984,0.715674,0.634166
0.753421,0.805938,0.715603,0.634102
0.753346,0.805891,0.715531,0.634039
0.753271,0.805845,0.71546,0.633975
0.753195,0.805799,0.715388,0.633912
0.75312,0.805753,0.715317,0.633849
0.753045,0.805707,0.715245,0.633785
0.75297,0.805661,0.715174,0.633722
0.752894,0.805615,0.715102,0.633658
0.752819,0.805569,0.715031,0.633595
0.752744,0.805523,0.714959,0.633532
0.752668,0.805477,0.714888,0.633468
0.752593,0.805431,0.714816,0.633405
0.752518,0.805385,0.714745,0.633342
0.752443,0.805339,0.714673,0.633278
0.752367,0.805292,0.714602,0.633215
0.752292,0.805246,0.71453,0.633152
0.752217,0.8052,0.714459,0.633088
0.752142,0.805154,0.714387,0.633025
0.752066,0.805108,0.714316,0.632962
0.751991,0.805062,0.714244,0.632898
0.751916,0.805016,0.714173,0.632835
0.751841,0.80497,0.714102,0.632772
0.751766,0.804924,0.71403,0.632709
0.751691,0.804878,0.713959,0.632645
0.751615,0.804832,0.713887,0.632582
0.75154,0.804786,0.713816,0.632519
0.751465,0.80474,0.713745,0.632456
0.75139,0.804694,0.713673,0.632392
0.751315,0.804648,0.713602,0.632329
0.75124,0.804602,0.71353,0.632266
0.751164,0.804556,0.713459,0.632203
0.751089,0.80451,0.713388,0.632139
0.751014,0.804464,0.713316,0.632076
0.750939,0.804418,0.713245,0.632013
0.750864,0.804372,0.713174,0.63195
0.750789,0.804326,0.713102,0.631887
0.750714,0.80428,0.713031,0.631823
0.750639,0.804234,0.71296,0.63176
0.750564,0.804188,0.712889,0.631697
0.750489,0.804142,0.712817,0.631634
0.750414,0.804096,0.712746,0.631571
0.750339,0.80405,0.712675,0.631508
0.750264,0.804004,0.712603,0.631444
0.750189,0.803958,0.712532,0.631381
0.750114,0.803912,0.712461,0.631318
0.750039,0.803866,0.71239,0.631255
0.749964,0.80382,0.712318,0.631192
0.749889,0.803774,0.712247,0.631129
0.749814,0.803728,0.712176,0.631066
0.749739,0.803682,0.712105,0.631003
0.749664,0.803636,0.712034,0.630939
0.749589,0.80359,0.711962,0.630876
0.749514,0.803544,0.711891,0.630813
0.749439,0.803498,0.71182,0.63075
0.749364,0.803452,0.711749,0.630687
0.749289,0.803406,0.711678,0.630624
0.749214,0.80336,0.711606,0.630561
0.749139,0.803315,0.711535,0.630498
0.749064,0.803269,0.711464,0.630435
0.748989,0.803223,0.711393,0.630372
0.748914,0.803177,0.711322,0.630309
0.748839,0.803131,0.711251,0.630246
0.748764,0.803085,0.71118,0.630183
0.74869,0.803039,0.711108,0.63012
0.748615,0.802993,0.711037,0.630057
0.74854,0.802947,0.710966,0.629994
0.748465,0.802901,0.710895,0.629931
0.74839,0.802855,0.710824,0.629868
0.748315,0.802809,0.710753,0.629805
0.748241,0.802763,0.710682,0.629742
0.748166,0.802717,0.710611,0.629679
0.748091,0.802672,0.71054,0.629616
0.748016,0.802626,0.710469,0.629553
0.747941,0.80258,0.710398,0.62949
0.747866,0.802534,0.710327,0.629427
0.747792,0.802488,0.710256,0.629364
0.747717,0.802442,0.710185,0.629301
0.747642,0.802396,0.710114,0.629238
0.747567,0.80235,0.710043,0.629175
0.747493,0.802304,0.709972,0.629112
0.747418,0.802259,0.709901,0.629049
0.747343,0.802213,0.70983,0.628986
0.747268,0.802167,0.709759,0.628924
0.747194,0.802121,0.709688,0.628861
0.747119,0.802075,0.709617,0.628798
0.747044,0.802029,0.709546,0.628735
0.74697,0.801983,0.709475,0.628672
0.746895,0.801937,0.709404,0.628609
0.74682,0.801892,0.709333,0.628546
0.746745,0.801846,0.709262,0.628483
0.746671,0.8018,0.709191,0.628421
0.746596,0.801754,0.70912,0.628358
0.746521,0.801708,0.709049,0.628295
0.746447,0.801662,0.708978,0.628232
0.746372,0.801616,0.708907,0.628169
0.746298,0.801571,0.708836,0.628106
0.746223,0.801525,0.708766,0.628044
0.746148,0.801479,0.708695,0.627981
0.746074,0.801433,0.708624,0.627918
0.745999,0.801387,0.708553,0.627855
0.745924,0.801341,0.708482,0.627792
0.74585,0.801296,0.708411,0.62773
0.745775,0.80125,0.70834,0.627667
0.745701,0.801204,0.70827,0.627604
0.745626,0.801158,0.708199,0.627541
0.745552,0.801112,0.708128,0.627479
0.745477,0.801066,0.708057,0.627416
0.745402,0.801021,0.707986,0.627353
0.745328,0.800975,0.707916,0.62729
0.745253,0.800929,0.707845,0.627228
0.745179,0.800883,0.707774,0.627165
0.745104,0.800837,0.707703,0.627102
0.74503,0.800792,0.707632,0.62704
0.744955,0.800746,0.707562,0.626977
0.744881,0.8007,0.707491,0.626914
0.744806,0.800654,0.70742,0.626851
0.744732,0.800608,0.707349,0.626789
0.744657,0.800563,0.707279,0.626726
0.744583,0.800517,0.707208,0.626663
0.744508,0.800471,0.707137,0.626601
0.744434,0.800425,0.707066,0.626538
0.74436,0.80038,0.706996,0.626475
0.744285,0.800334,0.706925,0.626413
0.744211,0.800288,0.706854,0.62635
0.744136,0.800242,0.706784,0.626287
0.744062,0.800196,0.706713,0.626225
0.743987,0.800151,0.706642,0.626162
0.743913,0.800105,0.706572,0.6261
0.743839,0.800059,0.706501,0.626037
0.743764,0.800013,0.70643,0.625974
0.74369,0.799968,0.70636,0.625912
0.743616,0.799922,0.706289,0.625849
0.743541,0.799876,0.706218,0.625787
0.743467,0.79983,0.706148,0.625724
0.743392,0.799785,0.706077,0.625661
0.743318,0.799739,0.706007,0.625599
0.743244,0.799693,0.705936,0.625536
0.743169,0.799648,0.705865,0.625474
0.743095,0.799602,0.705795,0.625411
0.743021,0.799556,0.705724,0.625349
0.742947,0.79951,0.705654,0.625286
0.742872,0.799465,0.705583,0.625224
0.742798,0.799419,0.705513,0.625161
0.742724,0.799373,0.705442,0.625099
0.742649,0.799327,0.705371,0.625036
0.742575,0.799282,0.705301,0.624974
0.742501,0.799236,0.70523,0.624911
0.742427,0.79919,0.70516,0.624849
0.742352,0.799145,0.705089,0.624786
0.742278,0.799099,0.705019,0.624724
0.742204,0.799053,0.704948,0.624661
0.74213,0.799008,0.704878,0.624599
0.742056,0.798962,0.704807,0.624536
0.741981,0.798916,0.704737,0.624474
0.741907,0.79887,0.704666,0.624411
0.741833,0.798825,0.704596,0.624349
0.741759,0.798779,0.704525,0.624286
0.741685,0.798733,0.704455,0.624224
0.74161,0.798688,0.704385,0.624162
0.741536,0.798642,0.704314,0.624099
0.741462,0.798596,0.704244,0.624037
0.741388,0.798551,0.704173,0.623974
0.741314,0.798505,0.704103,0.623912
0.74124,0.798459,0.704032,0.62385
0.741166,0.798414,0.703962,0.623787
0.741091,0.798368,0.703892,0.623725
0.741017,0.798322,0.703821,0.623662
0.740943,0.798277,0.703751,0.6236
0.740869,0.798231,0.703681,0.623538
0.740795,0.798185,0.70361,0.623475
0.740721,0.79814,0.70354,0.623413
0.740647,0.798094,0.703469,0.623351
0.740573,0.798048,0.703399,0.623288
0.740499,0.798003,0.703329,0.623226
0.740425,0.797957,0.703258,0.623164
0.740351,0.797912,0.703188,0.623101
0.740277,0.797866,0.703118,0.623039
0.740203,0.79782,0.703047,0.622977
0.740129,0.797775,0.702977,0.622914
0.740055,0.797729,0.702907,0.622852
0.739981,0.797683,0.702837,0.62279
0.739907,0.797638,0.702766,0.622728
0.739833,0.797592,0.702696,0.622665
0.739759,0.797547,0.702626,0.622603
0.739685,0.797501,0.702555,0.622541
0.739611,0.797455,0.702485,0.622479
0.739537,0.79741,0.702415,0.622416
0.739463,0.797364,0.702345,0.622354
0.739389,0.797319,0.702274,0.622292
0.739315,0.797273,0.702204,0.62223
0.739241,0.797227,0.702134,0.622167
0.739167,0.797182,0.702064,0.622105
0.739093,0.797136,0.701994,0.622043
0.739019,0.797091,0.701923,0.621981
0.738945,0.797045,0.701853,0.621919
0.738871,0.796999,0.701783,0.621856
0.738797,0.796954,0.701713,0.621794
0.738724,0.796908,0.701643,0.621732
0.73865,0.796863,0.701573,0.62167
0.738576,0.796817,0.701502,0.621608
0.738502,0.796772,0.701432,0.621546
0.738428,0.796726,0.722403,0.621483
0.737985,0.79668,0.722331,0.621421
0.737542,0.796635,0.722258,0.621359
0.7371,0.796589,0.722186,0.621297
0.736658,0.796544,0.722114,0.621235
0.736216,0.796498,0.722042,0.621173
0.735774,0.796453,0.72197,0.621111
0.735333,0.796407,0.721897,0.621048
0.734891,0.796362,0.721825,0.620986
0.734451,0.796316,0.721753,0.620924
0.73401,0.79627,0.721681,0.620862
0.73357,0.796225,0.721609,0.6208
0.733129,0.796179,0.721537,0.620738
0.73269,0.796134,0.721464,0.620676
0.73225,0.796088,0.721392,0.620614
0.731811,0.796043,0.72132,0.620552
0.731372,0.795997,0.721248,0.62049
0.730933,0.795952,0.721176,0.620428
0.730494,0.795906,0.721104,0.620366
0.730056,0.795861,0.721032,0.620304
0.729618,0.795815,0.72096,0.620242
0.72918,0.79577,0.720887,0.62018
0.728743,0.795724,0.720815,0.620118
0.728306,0.795679,0.720743,0.620056
0.727869,0.795633,0.720671,0.619994
0.727432,0.795588,0.720599,0.619932
0.726996,0.795542,0.720527,0.61987
0.726559,0.795497,0.720455,0.619808
0.726124,0.795451,0.720383,0.619746
0.725688,0.795406,0.720311,0.619684
0.725253,0.79536,0.720239,0.619622
0.724817,0.795315,0.720167,0.61956
0.724383,0.795269,0.720095,0.619498
0.723948,0.795224,0.720023,0.619436
0.723514,0.795178,0.719951,0.619374
0.72308,0.795133,0.719879,0.619312
0.722646,0.795087,0.719807,0.61925
0.722573,0.795042,0.719735,0.619188
0.722501,0.794996,0.719663,0.619126
0.722429,0.794951,0.719591,0.619064
0.722357,0.794905,0.719519,0.619002
0.722284,0.79486,0.719447,0.61894
0.722212,0.794814,0.719375,0.618878
0.72214,0.794769,0.719303,0.618817
0.722068,0.794724,0.719231,0.618755
0.721996,0.794678,0.719159,0.618693
0.721923,0.794633,0.719087,0.618631
0.721851,0.794587,0.719015,0.618569
0.721779,0.794542,0.718944,0.618507
0.721707,0.794496,0.718872,0.618445
0.721635,0.794451,0.7188,0.618384
0.721563,0.794405,0.718728,0.618322
0.72149,0.79436,0.718656,0.61826
0.721418,0.794315,0.718584,0.618198
0.721346,0.794269,0.718512,0.618136
0.721274,0.794224,0.71844,0.618074
0.721202,0.794178,0.718369,0.618013
0.72113,0.794133,0.718297,0.617951
0.721058,0.794088,0.718225,0.617889
0.720985,0.794042,0.718153,0.617827
0.720913,0.793997,0.718081,0.617765
0.720841,0.793951,0.718009,0.617704
0.720769,0.793906,0.717938,0.617642
0.720697,0.79386,0.717866,0.61758
0.720625,0.793815,0.717794,0.617518
0.720553,0.79377,0.717722,0.617457
0.720481,0.793724,0.717651,0.617395
0.720409,0.793679,0.717579,0.617333
0.720337,0.793633,0.717507,0.617271
0.720265,0.793588,0.717435,0.61721
0.720193,0.793543,0.717364,0.617148
0.720121,0.793497,0.717292,0.617086
0.720049,0.793452,0.71722,0.617025
0.719977,0.793407,0.717148,0.616963
0.719905,0.793361,0.717077,0.616901
0.719833,0.793316,0.717005,0.616839
0.719761,0.79327,0.716933,0.616778
0.719689,0.793225,0.716862,0.616716
0.719617,0.79318,0.71679,0.616654
0.719545,0.793134,0.716718,0.616593
0.719473,0.793089,0.716646,0.616531
0.719401,0.793044,0.716575,0.616469
0.719329,0.792998,0.716503,0.616408
0.719257,0.792953,0.716432,0.616346
0.719185,0.792908,0.71636,0.616284
0.719113,0.792862,0.716288,0.616223
0.719041,0.792817,0.716217,0.616161
0.718969,0.792772,0.716145,0.6161
0.718898,0.792726,0.716073,0.616038
0.718826,0.792681,0.716002,0.615976
0.718754,0.792636,0.71593,0.615915
0.718682,0.79259,0.715859,0.615853
0.71861,0.792545,0.715787,0.615792
0.718538,0.7925,0.715715,0.61573
0.718466,0.792454,0.715644,0.615668
0.718394,0.792409,0.715572,0.615607
0.718323,0.792364,0.715501,0.615545
0.718251,0.792318,0.715429,0.615484
0.718179,0.792273,0.715358,0.615422
0.717748,0.792228,0.715286,0.615361
0.717317,0.792182,0.715215,0.615299
0.716887,0.792137,0.715143,0.615238
0.716457,0.792092,0.715072,0.615176
0.716027,0.792046,0.715,0.615115
0.715598,0.792001,0.714929,0.615053
0.715168,0.791956,0.714857,0.614992
0.714739,0.791911,0.714786,0.61493
0.71431,0.791865,0.714714,0.614869
0.713882,0.79182,0.714643,0.614807
0.713454,0.791775,0.714571,0.614746
0.713026,0.791729,0.7145,0.614684
0.712598,0.791684,0.714428,0.614623
0.71217,0.791639,0.714357,0.614561
0.711743,0.791594,0.714285,0.6145
