energy,productivity,fun,hunger
0.823431,0.999872,0.732804,0.754686
0.823349,0.999745,0.73273,0.754611
0.823267,0.999617,0.732657,0.754535
0.823184,0.99949,0.732584,0.75446
0.823102,0.999362,0.732511,0.754385
0.82302,0.999234,0.732437,0.754309
0.822937,0.999107,0.732364,0.754234
0.822855,0.998979,0.732291,0.754158
0.822773,0.998852,0.732218,0.754083
0.82269,0.998724,0.732144,0.754007
0.822608,0.998597,0.732071,0.753932
0.822526,0.998469,0.731998,0.753857
0.822444,0.998342,0.731925,0.753781
0.822361,0.998215,0.731852,0.753706
0.822279,0.998087,0.731778,0.75363
0.822197,0.99796,0.731705,0.753555
0.822115,0.997832,0.731632,0.75348
0.822033,0.997705,0.731559,0.753404
0.82195,0.997578,0.731486,0.753329
0.821868,0.99745,0.731413,0.753254
0.821786,0.997323,0.731339,0.753178
0.821704,0.997196,0.731266,0.753103
0.821622,0.997069,0.731193,0.753028
0.821539,0.996941,0.73112,0.752952
0.821457,0.996814,0.731047,0.752877
0.821375,0.996687,0.730974,0.752802
0.821293,0.99656,0.730901,0.752727
0.821211,0.996432,0.730828,0.752651
0.821129,0.996305,0.730755,0.752576
0.821047,0.996178,0.730681,0.752501
0.820965,0.996051,0.730608,0.752426
0.820882,0.995924,0.730535,0.75235
0.8208,0.995797,0.730462,0.752275
0.820718,0.99567,0.730389,0.7522
0.820636,0.995543,0.730316,0.752125
0.820554,0.995415,0.730243,0.752049
0.820472,0.995288,0.73017,0.751974
0.82039,0.995161,0.730097,0.751899
0.820308,0.995034,0.730024,0.751824
0.820226,0.994907,0.729951,0.751749
0.820144,0.99478,0.729878,0.751673
0.820062,0.994653,0.729805,0.751598
0.81998,0.994526,0.729732,0.751523
0.819898,0.9944,0.729659,0.751448
0.819816,0.994273,0.729586,0.751373
0.819734,0.994146,0.729513,0.751298
0.819652,0.994019,0.72944,0.751223
0.81957,0.993892,0.729367,0.751147
0.819488,0.993765,0.729294,0.751072
0.819406,0.993638,0.729222,0.750997
0.819324,0.993511,0.729149,0.750922
0.819242,0.993385,0.729076,0.750847
0.81916,0.993258,0.729003,0.750772
0.819078,0.993131,0.72893,0.750697
0.818996,0.993004,0.728857,0.750622
0.818915,0.992878,0.728784,0.750547
0.818833,0.992751,0.728711,0.750472
0.818751,0.992624,0.728638,0.750397
0.818669,0.992497,0.728565,0.750322
0.818587,0.992371,0.728493,0.750247
0.818505,0.992244,0.72842,0.750172
0.818423,0.992117,0.728347,0.750097
0.818342,0.991991,0.728274,0.750022
0.81826,0.991864,0.728201,0.749947
0.818178,0.991738,0.728128,0.749872
0.818096,0.991611,0.728056,0.749797
0.818014,0.991485,0.727983,0.749722
0.817932,0.991358,0.72791,0.749647
0.817851,0.991231,0.727837,0.749572
0.817769,0.991105,0.727764,0.749497
0.817687,0.990978,0.727692,0.749422
0.817605,0.990852,0.727619,0.749347
0.817524,0.990725,0.727546,0.749272
0.817442,0.990599,0.727473,0.749197
0.81736,0.990473,0.727401,0.749122
0.817278,0.990346,0.727328,0.749047
0.817197,0.99022,0.727255,0.748972
0.817115,0.990093,0.727182,0.748897
0.817033,0.989967,0.72711,0.748822
0.816951,0.989841,0.727037,0.748748
0.81687,0.989714,0.726964,0.748673
0.816788,0.989588,0.726892,0.748598
0.816706,0.989462,0.726819,0.748523
0.816625,0.989335,0.726746,0.748448
0.816543,0.989209,0.726674,0.748373
0.816461,0.989083,0.726601,0.748298
0.81638,0.988957,0.726528,0.748224
0.816298,0.98883,0.726456,0.748149
0.816216,0.988704,0.726383,0.748074
0.816135,0.988578,0.72631,0.747999
0.816053,0.988452,0.726238,0.747924
0.815972,0.988326,0.726165,0.74785
0.81589,0.9882,0.726092,0.747775
0.815808,0.988073,0.72602,0.7477
0.815727,0.987947,0.725947,0.747625
0.815645,0.987821,0.725875,0.74755
0.815564,0.987695,0.725802,0.747476
0.815482,0.987569,0.725729,0.747401
0.815401,0.987443,0.725657,0.747326
0.815319,0.987317,0.725584,0.747251
0.815238,0.987191,0.725512,0.747177
0.815156,0.987065,0.725439,0.747102
0.815075,0.986939,0.725367,0.747027
0.814993,0.986813,0.725294,0.746953
0.814912,0.986687,0.725222,0.746878
0.81483,0.986561,0.725149,0.746803
0.814749,0.986435,0.725077,0.746729
0.814667,0.986309,0.725004,0.746654
0.814586,0.986183,0.724932,0.746579
0.814504,0.986058,0.724859,0.746505
0.814423,0.985932,0.724787,0.74643
0.814341,0.985806,0.724714,0.746355
0.81426,0.98568,0.724642,0.746281
0.814178,0.985554,0.724569,0.746206
0.814097,0.985428,0.724497,0.746131
0.814016,0.985303,0.724424,0.746057
0.813934,0.985177,0.724352,0.745982
0.813853,0.985051,0.724279,0.745908
0.813771,0.984925,0.724207,0.745833
0.81369,0.9848,0.724135,0.745758
0.813609,0.984674,0.724062,0.745684
0.813527,0.984548,0.72399,0.745609
0.813446,0.984423,0.723917,0.745535
0.813365,0.984297,0.723845,0.74546
0.813283,0.984171,0.723773,0.745386
0.813202,0.984046,0.7237,0.745311
0.813121,0.98392,0.723628,0.745236
0.813039,0.983795,0.723555,0.745162
0.812958,0.983669,0.723483,0.745087
0.812877,0.983544,0.723411,0.745013
0.812795,0.983418,0.723338,0.744938
0.812714,0.983293,0.723266,0.744864
0.812633,0.983167,0.723194,0.744789
0.812552,0.983042,0.723121,0.744715
0.81247,0.982916,0.723049,0.744641
0.812389,0.982791,0.722977,0.744566
0.812308,0.982665,0.722904,0.744492
0.812227,0.98254,0.722832,0.744417
0.812145,0.982414,0.72276,0.744343
0.812064,0.982289,0.722688,0.744268
0.811983,0.982164,0.722615,0.744194
0.811902,0.982038,0.722543,0.744119
0.811821,0.981913,0.722471,0.744045
0.811739,0.981788,0.722399,0.743971
0.811658,0.981662,0.722326,0.743896
0.811577,0.981537,0.722254,0.743822
0.811496,0.981412,0.722182,0.743747
0.811415,0.981286,0.72211,0.743673
0.811334,0.981161,0.722037,0.743599
0.811252,0.981036,0.721965,0.743524
0.811171,0.980911,0.721893,0.74345
0.81109,0.980786,0.721821,0.743376
0.811009,0.98066,0.721749,0.743301
0.810928,0.980535,0.721677,0.743227
0.810847,0.98041,0.721604,0.743153
0.810766,0.980285,0.721532,0.743078
0.810685,0.98016,0.72146,0.743004
0.810604,0.980035,0.721388,0.74293
0.810523,0.97991,0.721316,0.742855
0.810442,0.979785,0.721244,0.742781
0.810361,0.979659,0.721172,0.742707
0.81028,0.979534,0.721099,0.742633
0.810198,0.979409,0.721027,0.742558
0.810117,0.979284,0.720955,0.742484
0.810036,0.979159,0.720883,0.74241
0.809955,0.979034,0.720811,0.742336
0.809874,0.978909,0.720739,0.742261
0.809793,0.978785,0.720667,0.742187
0.809712,0.97866,0.720595,0.742113
0.809632,0.978535,0.720523,0.742039
0.809551,0.97841,0.720451,0.741964
0.80947,0.978285,0.720379,0.74189
0.809389,0.97816,0.720307,0.741816
0.809308,0.978035,0.720235,0.741742
0.809227,0.97791,0.720163,0.741668
0.809146,0.977786,0.720091,0.741594
0.809065,0.977661,0.720019,0.741519
0.808984,0.977536,0.719947,0.741445
0.808903,0.977411,0.719875,0.741371
0.808822,0.977287,0.719803,0.741297
0.808741,0.977162,0.719731,0.741223
0.80866,0.977037,0.719659,0.741149
0.80858,0.976912,0.719587,0.741075
0.808499,0.976788,0.719515,0.741001
0.808418,0.976663,0.719443,0.740926
0.808337,0.976538,0.719371,0.740852
0.808256,0.976414,0.719299,0.740778
0.808175,0.976289,0.719227,0.740704
0.808095,0.976164,0.719155,0.74063
0.808014,0.97604,0.719083,0.740556
0.807933,0.975915,0.719011,0.740482
0.807852,0.975791,0.718939,0.740408
0.807771,0.975666,0.718867,0.740334
0.807691,0.975542,0.718795,0.74026
0.80761,0.975417,0.718724,0.740186
0.807529,0.975293,0.718652,0.740112
0.807448,0.975168,0.71858,0.740038
0.807368,0.975044,0.718508,0.739964
0.807287,0.974919,0.718436,0.73989
0.807206,0.974795,0.718364,0.739816
0.807125,0.97467,0.718292,0.739742
0.807045,0.974546,0.718221,0.739668
0.806964,0.974422,0.718149,0.739594
0.806883,0.974297,0.718077,0.73952
0.806803,0.974173,0.718005,0.739446
0.806722,0.974049,0.717933,0.739372
0.806641,0.973924,0.717862,0.739298
0.806561,0.9738,0.71779,0.739224
0.80648,0.973676,0.717718,0.73915
0.806399,0.973551,0.717646,0.739076
0.806319,0.973427,0.717574,0.739002
0.806238,0.973303,0.717503,0.738929
0.806157,0.973179,0.717431,0.738855
0.806077,0.973054,0.717359,0.738781
0.805996,0.97293,0.717287,0.738707
0.805916,0.972806,0.717216,0.738633
0.805835,0.972682,0.717144,0.738559
0.805754,0.972558,0.717072,0.738485
0.805674,0.972434,0.717001,0.738411
0.805593,0.97231,0.716929,0.738338
0.805513,0.972185,0.716857,0.738264
0.805432,0.972061,0.716786,0.73819
0.805352,0.971937,0.716714,0.738116
0.805271,0.971813,0.716642,0.738042
0.805191,0.971689,0.716571,0.737968
0.80511,0.971565,0.716499,0.737895
0.80503,0.971441,0.716427,0.737821
0.804949,0.971317,0.716356,0.737747
0.804869,0.971193,0.716284,0.737673
0.804788,0.971069,0.716212,0.7376
0.804708,0.970945,0.716141,0.737526
0.804627,0.970821,0.716069,0.737452
0.804547,0.970697,0.715997,0.737378
0.804466,0.970574,0.715926,0.737305
0.804386,0.97045,0.715854,0.737231
0.804305,0.970326,0.715783,0.737157
0.804225,0.970202,0.715711,0.737083
0.804144,0.970078,0.71564,0.73701
0.804064,0.969954,0.715568,0.736936
0.803984,0.969831,0.715496,0.736862
0.803903,0.969707,0.715425,0.736789
0.803823,0.969583,0.715353,0.736715
0.803742,0.969459,0.715282,0.736641
0.803662,0.969336,0.71521,0.736568
0.803582,0.969212,0.715139,0.736494
0.803501,0.969088,0.715067,0.73642
0.803421,0.968964,0.714996,0.736347
0.803341,0.968841,0.714924,0.736273
0.80326,0.968717,0.714853,0.736199
0.80318,0.968593,0.714781,0.736126
0.8031,0.96847,0.71471,0.736052
0.803019,0.968346,0.714638,0.735979
0.802939,0.968223,0.714567,0.735905
0.802859,0.968099,0.714495,0.735831
0.802778,0.967975,0.714424,0.735758
0.802698,0.967852,0.714352,0.735684
0.802618,0.967728,0.714281,0.735611
0.802538,0.967605,0.71421,0.735537
0.802457,0.967481,0.714138,0.735464
0.802377,0.967358,0.714067,0.73539
0.802297,0.967234,0.713995,0.735316
0.802217,0.967111,0.713924,0.735243
0.802136,0.966988,0.713853,0.735169
0.802056,0.966864,0.713781,0.735096
0.801976,0.966741,0.71371,0.735022
0.801896,0.966617,0.713638,0.734949
0.801816,0.966494,0.713567,0.734875
0.801735,0.966371,0.713496,0.734802
0.801655,0.966247,0.713424,0.734728
0.801575,0.966124,0.713353,0.734655
0.801495,0.966001,0.713282,0.734581
0.801415,0.965877,0.71321,0.734508
0.801335,0.965754,0.713139,0.734435
0.801255,0.965631,0.713068,0.734361
0.801174,0.965508,0.712996,0.734288
0.801094,0.965384,0.712925,0.734214
0.801014,0.965261,0.712854,0.734141
0.800934,0.965138,0.712783,0.734067
0.800854,0.965015,0.712711,0.733994
0.800774,0.964892,0.71264,0.733921
0.800694,0.964768,0.712569,0.733847
0.800614,0.964645,0.712497,0.733774
0.800534,0.964522,0.712426,0.7337
0.800454,0.964399,0.712355,0.733627
0.800374,0.964276,0.712284,0.733554
0.800294,0.964153,0.712213,0.73348
0.800214,0.96403,0.712141,0.733407
0.800134,0.963907,0.71207,0.733334
0.800054,0.963784,0.711999,0.73326
0.799974,0.963661,0.711928,0.733187
0.799894,0.963538,0.711857,0.733114
0.799814,0.963415,0.711785,0.73304
0.799734,0.963292,0.711714,0.732967
0.799654,0.963169,0.711643,0.732894
0.799574,0.963046,0.711572,0.73282
0.799494,0.962923,0.711501,0.732747
0.799414,0.9628,0.711429,0.732674
0.799334,0.962677,0.711358,0.732601
0.799254,0.962554,0.711287,0.732527
0.799174,0.962432,0.711216,0.732454
0.799094,0.962309,0.711145,0.732381
0.799014,0.962186,0.711074,0.732308
0.798934,0.962063,0.711003,0.732234
0.798854,0.96194,0.710932,0.732161
0.798774,0.961817,0.710861,0.732088
0.798695,0.961695,0.710789,0.732015
0.798615,0.961572,0.710718,0.731942
0.798535,0.961449,0.710647,0.731868
0.798455,0.961327,0.710576,0.731795
0.798375,0.961204,0.710505,0.731722
0.798295,0.961081,0.710434,0.731649
0.798215,0.960958,0.710363,0.731576
0.798136,0.960836,0.731601,0.731503
0.797657,0.960713,0.731528,0.731429
0.797178,0.960591,0.731455,0.731356
0.7967,0.960468,0.731381,0.731283
0.796222,0.960345,0.731308,0.73121
0.795744,0.960223,0.731235,0.731137
0.795267,0.9601,0.731162,0.731064
0.79479,0.959978,0.731089,0.730991
0.794313,0.959855,0.731016,0.730918
0.793836,0.959733,0.730943,0.730844
0.79336,0.95961,0.73087,0.730771
0.792884,0.959488,0.730796,0.730698
0.792408,0.959365,0.730723,0.730625
0.791933,0.959243,0.73065,0.730552
0.791458,0.95912,0.730577,0.730479
0.790983,0.958998,0.730504,0.730406
0.790509,0.958876,0.730431,0.730333
0.790034,0.958753,0.730358,0.73026
0.78956,0.958631,0.730285,0.730187
0.789087,0.958508,0.730212,0.730114
0.788613,0.958386,0.730139,0.730041
0.78814,0.958264,0.730066,0.729968
0.787667,0.958141,0.729993,0.729895
0.787195,0.958019,0.72992,0.729822
0.786722,0.957897,0.729847,0.729749
0.78625,0.957775,0.729774,0.729676
0.785779,0.957652,0.729701,0.729603
0.785307,0.95753,0.729628,0.72953
0.784836,0.957408,0.729555,0.729457
0.784365,0.957286,0.729482,0.729384
0.783895,0.957164,0.729409,0.729311
0.783424,0.957041,0.729336,0.729238
0.782954,0.956919,0.729263,0.729165
0.782485,0.956797,0.72919,0.729092
0.782015,0.956675,0.729117,0.72902
0.781546,0.956553,0.729045,0.728947
0.781077,0.956431,0.728972,0.728874
0.780608,0.956309,0.728899,0.728801
0.78014,0.956187,0.728826,0.728728
0.779672,0.956065,0.728753,0.728655
0.779204,0.955943,0.72868,0.728582
0.778737,0.955821,0.728607,0.728509
0.77827,0.955699,0.728534,0.728437
0.777803,0.955577,0.728462,0.728364
0.777336,0.955455,0.728389,0.728291
0.77687,0.955333,0.728316,0.728218
0.776404,0.955211,0.728243,0.728145
0.775938,0.955089,0.72817,0.728072
0.775472,0.954967,0.728097,0.728
0.775007,0.954845,0.728025,0.727927
0.774542,0.954723,0.727952,0.727854
0.774077,0.954601,0.727879,0.727781
0.774,0.95448,0.727806,0.727708
0.773923,0.954358,0.727733,0.727636
0.773845,0.954236,0.727661,0.727563
0.773768,0.954114,0.727588,0.72749
0.77369,0.953992,0.727515,0.727417
0.773613,0.953871,0.727442,0.727345
0.773536,0.953749,0.72737,0.727272
0.773458,0.953627,0.727297,0.727199
0.773381,0.953505,0.727224,0.727126
0.773304,0.953384,0.727151,0.727054
0.773226,0.953262,0.727079,0.726981
0.773149,0.95314,0.727006,0.726908
0.773072,0.953019,0.726933,0.726836
0.772994,0.952897,0.726861,0.726763
0.772917,0.952775,0.726788,0.72669
0.77284,0.952654,0.726715,0.726618
0.772763,0.952532,0.726643,0.726545
0.772685,0.952411,0.72657,0.726472
0.772608,0.952289,0.726497,0.7264
0.772531,0.952168,0.726425,0.726327
0.772453,0.952046,0.726352,0.726254
0.772376,0.951925,0.726279,0.726182
0.772299,0.951803,0.726207,0.726109
0.772222,0.951682,0.726134,0.726037
0.772145,0.95156,0.726061,0.725964
0.772067,0.951439,0.725989,0.725891
0.77199,0.951317,0.725916,0.725819
0.771913,0.951196,0.725844,0.725746
0.771836,0.951074,0.725771,0.725674
0.771759,0.950953,0.725698,0.725601
0.771681,0.950832,0.725626,0.725528
0.771604,0.95071,0.725553,0.725456
0.771527,0.950589,0.725481,0.725383
0.77145,0.950468,0.725408,0.725311
0.771373,0.950346,0.725336,0.725238
0.771296,0.950225,0.725263,0.725166
0.771218,0.950104,0.725191,0.725093
0.771141,0.949982,0.725118,0.725021
0.771064,0.949861,0.725046,0.724948
0.770987,0.94974,0.724973,0.724876
0.77091,0.949619,0.724901,0.724803
0.770833,0.949498,0.724828,0.724731
0.770756,0.949376,0.724756,0.724658
0.770679,0.949255,0.724683,0.724586
0.770602,0.949134,0.724611,0.724513
0.770525,0.949013,0.724538,0.724441
0.770448,0.948892,0.724466,0.724368
0.770371,0.948771,0.724393,0.724296
0.770294,0.94865,0.724321,0.724224
0.770216,0.948528,0.724248,0.724151
0.770139,0.948407,0.724176,0.724079
0.770062,0.948286,0.724104,0.724006
0.769985,0.948165,0.724031,0.723934
0.769908,0.948044,0.723959,0.723862
0.769831,0.947923,0.723886,0.723789
0.769754,0.947802,0.723814,0.723717
0.769678,0.947681,0.723742,0.723644
0.769601,0.94756,0.723669,0.723572
0.769524,0.947439,0.723597,0.7235
0.769447,0.947319,0.723525,0.723427
0.76937,0.947198,0.723452,0.723355
0.769293,0.947077,0.72338,0.723283
0.769216,0.946956,0.723308,0.72321
0.769139,0.946835,0.723235,0.723138
0.769062,0.946714,0.723163,0.723066
0.768985,0.946593,0.723091,0.722993
0.768908,0.946472,0.723018,0.722921
0.768831,0.946352,0.722946,0.722849
0.768754,0.946231,0.722874,0.722777
0.768678,0.94611,0.722801,0.722704
0.768601,0.945989,0.722729,0.722632
0.768524,0.945869,0.722657,0.72256
0.768447,0.945748,0.722585,0.722487
0.76837,0.945627,0.722512,0.722415
0.768293,0.945507,0.72244,0.722343
0.768216,0.945386,0.722368,0.722271
0.76814,0.945265,0.722296,0.722199
0.768063,0.945145,0.722223,0.722126
0.767986,0.945024,0.722151,0.722054
0.767909,0.944903,0.722079,0.721982
0.767832,0.944783,0.722007,0.72191
0.767756,0.944662,0.721934,0.721837
0.767679,0.944542,0.721862,0.721765
0.767602,0.944421,0.72179,0.721693
0.767525,0.9443,0.721718,0.721621
0.767449,0.94418,0.721646,0.721549
0.767372,0.944059,0.721574,0.721477
0.767295,0.943939,0.721501,0.721404
0.767218,0.943818,0.721429,0.721332
0.767142,0.943698,0.721357,0.72126
0.767065,0.943578,0.721285,0.721188
0.766988,0.943457,0.721213,0.721116
0.766912,0.943337,0.721141,0.721044
0.766835,0.943216,0.721069,0.720972
0.766758,0.943096,0.720997,0.7209
0.766681,0.942976,0.720924,0.720828
0.766605,0.942855,0.720852,0.720755
0.766528,0.942735,0.72078,0.720683
0.766451,0.942614,0.720708,0.720611
0.766375,0.942494,0.720636,0.720539
0.766298,0.942374,0.720564,0.720467
0.766222,0.942254,0.720492,0.720395
0.766145,0.942133,0.72042,0.720323
0.766068,0.942013,0.720348,0.720251
0.765992,0.941893,0.720276,0.720179
0.765915,0.941773,0.720204,0.720107
0.765839,0.941652,0.720132,0.720035
0.765762,0.941532,0.72006,0.719963
0.765685,0.941412,0.719988,0.719891
0.765609,0.941292,0.719916,0.719819
0.765532,0.941172,0.719844,0.719747
0.765456,0.941052,0.719772,0.719675
0.765379,0.940932,0.7197,0.719603
0.765303,0.940811,0.719628,0.719531
0.765226,0.940691,0.719556,0.719459
0.76515,0.940571,0.719484,0.719387
0.765073,0.940451,0.719412,0.719315
0.764997,0.940331,0.71934,0.719243
0.76492,0.940211,0.719268,0.719171
0.764844,0.940091,0.719196,0.7191
0.764767,0.939971,0.719124,0.719028
0.764691,0.939851,0.719052,0.718956
0.764614,0.939731,0.71898,0.718884
0.764538,0.939611,0.718909,0.718812
0.764461,0.939491,0.718837,0.71874
0.764385,0.939372,0.718765,0.718668
0.764308,0.939252,0.718693,0.718596
0.764232,0.939132,0.718621,0.718524
0.764155,0.939012,0.718549,0.718453
0.764079,0.938892,0.718477,0.718381
0.764003,0.938772,0.718405,0.718309
0.763926,0.938652,0.718334,0.718237
0.76385,0.938533,0.718262,0.718165
0.763773,0.938413,0.71819,0.718093
0.763697,0.938293,0.718118,0.718022
0.763621,0.938173,0.718046,0.71795
0.763544,0.938054,0.717975,0.717878
0.763468,0.937934,0.717903,0.717806
0.763392,0.937814,0.717831,0.717734
0.763315,0.937694,0.717759,0.717663
0.763239,0.937575,0.717687,0.717591
0.763163,0.937455,0.717616,0.717519
0.763086,0.937335,0.717544,0.717447
0.76301,0.937216,0.717472,0.717376
0.762934,0.937096,0.7174,0.717304
0.762857,0.936977,0.717329,0.717232
0.762781,0.936857,0.717257,0.717161
0.762705,0.936737,0.717185,0.717089
0.762629,0.936618,0.717113,0.717017
0.762552,0.936498,0.717042,0.716945
0.762476,0.936379,0.71697,0.716874
0.7624,0.936259,0.716898,0.716802
0.762324,0.93614,0.716827,0.71673
0.762247,0.93602,0.716755,0.716659
0.762171,0.935901,0.716683,0.716587
0.762095,0.935781,0.716612,0.716515
0.762019,0.935662,0.71654,0.716444
0.761942,0.935542,0.716468,0.716372
0.761866,0.935423,0.716397,0.7163
0.76179,0.935304,0.716325,0.716229
0.761714,0.935184,0.716253,0.716157
0.761638,0.935065,0.716182,0.716086
0.761562,0.934946,0.71611,0.716014
0.761485,0.934826,0.716039,0.715942
0.761409,0.934707,0.715967,0.715871
0.761333,0.934588,0.715895,0.715799
0.761257,0.934468,0.715824,0.715728
0.761181,0.934349,0.715752,0.715656
0.761105,0.93423,0.715681,0.715584
0.761029,0.934111,0.715609,0.715513
0.760953,0.933991,0.715537,0.715441
0.760876,0.933872,0.715466,0.71537
0.7608,0.933753,0.715394,0.715298
0.760724,0.933634,0.715323,0.715227
0.760648,0.933515,0.715251,0.715155
0.760572,0.933396,0.71518,0.715084
0.760496,0.933276,0.715108,0.715012
0.76042,0.933157,0.715037,0.714941
0.760344,0.933038,0.714965,0.714869
0.760268,0.932919,0.714894,0.714798
0.760192,0.9328,0.714822,0.714726
0.760116,0.932681,0.714751,0.714655
0.76004,0.932562,0.714679,0.714583
0.759964,0.932443,0.714608,0.714512
0.759888,0.932324,0.714536,0.71444
0.759812,0.932205,0.714465,0.714369
0.759736,0.932086,0.714393,0.714297
0.75966,0.931967,0.714322,0.714226
0.759584,0.931848,0.714251,0.714155
0.759508,0.931729,0.714179,0.714083
0.759432,0.93161,0.714108,0.714012
0.759356,0.931491,0.714036,0.71394
0.75928,0.931372,0.713965,0.713869
0.759204,0.931253,0.713894,0.713798
0.759128,0.931135,0.713822,0.713726
0.759052,0.931016,0.713751,0.713655
0.758977,0.930897,0.713679,0.713583
