energy,productivity,fun,hunger
0.555901,0.739374,0.729434,0.620158
0.555845,0.739329,0.729361,0.620096
0.55579,0.739283,0.729288,0.620034
0.555734,0.739237,0.729215,0.619972
0.555679,0.739192,0.729142,0.61991
0.555623,0.739146,0.729069,0.619848
0.555567,0.739101,0.728996,0.619786
0.555512,0.739055,0.728923,0.619724
0.555456,0.739009,0.72885,0.619662
0.555401,0.738964,0.728777,0.6196
0.555345,0.738918,0.728705,0.619539
0.55529,0.738873,0.728632,0.619477
0.555234,0.738827,0.728559,0.619415
0.555179,0.738782,0.728486,0.619353
0.555123,0.738736,0.728413,0.619291
0.555068,0.73869,0.72834,0.619229
0.555012,0.738645,0.728267,0.619167
0.554957,0.738599,0.728195,0.619105
0.554901,0.738554,0.728122,0.619043
0.554846,0.738508,0.728049,0.618981
0.55479,0.738463,0.727976,0.618919
0.554735,0.738417,0.727903,0.618857
0.554679,0.738372,0.727831,0.618795
0.554624,0.738326,0.727758,0.618734
0.554568,0.738281,0.727685,0.618672
0.554513,0.738235,0.727612,0.61861
0.554457,0.73819,0.72754,0.618548
0.554402,0.738144,0.727467,0.618486
0.554346,0.738098,0.727394,0.618424
0.554291,0.738053,0.727321,0.618362
0.554236,0.738007,0.727249,0.618301
0.55418,0.737962,0.727176,0.618239
0.554125,0.737916,0.727103,0.618177
0.554069,0.737871,0.72703,0.618115
0.554014,0.737825,0.726958,0.618053
0.553959,0.73778,0.726885,0.617992
0.553903,0.737734,0.726812,0.61793
0.553848,0.737689,0.72674,0.617868
0.553792,0.737643,0.726667,0.617806
0.553737,0.737598,0.726594,0.617744
0.553682,0.737552,0.726522,0.617683
0.553626,0.737507,0.726449,0.617621
0.553571,0.737461,0.726376,0.617559
0.553516,0.737416,0.726304,0.617497
0.55346,0.73737,0.726231,0.617436
0.553405,0.737325,0.726158,0.617374
0.553349,0.737279,0.726086,0.617312
0.553294,0.737234,0.726013,0.61725
0.553239,0.737189,0.725941,0.617189
0.553183,0.737143,0.725868,0.617127
0.553128,0.737098,0.725795,0.617065
0.553073,0.737052,0.725723,0.617003
0.553018,0.737007,0.72565,0.616942
0.552962,0.736961,0.725578,0.61688
0.552907,0.736916,0.725505,0.616818
0.552852,0.73687,0.725433,0.616757
0.552796,0.736825,0.72536,0.616695
0.552741,0.736779,0.725288,0.616633
0.552686,0.736734,0.725215,0.616572
0.552631,0.736689,0.725142,0.61651
0.552575,0.736643,0.72507,0.616448
0.55252,0.736598,0.724997,0.616387
0.552465,0.736552,0.724925,0.616325
0.55241,0.736507,0.724852,0.616263
0.552354,0.736461,0.72478,0.616202
0.552299,0.736416,0.724708,0.61614
0.552244,0.736371,0.724635,0.616079
0.552189,0.736325,0.724563,0.616017
0.552133,0.73628,0.72449,0.615955
0.552078,0.736234,0.724418,0.615894
0.552023,0.736189,0.724345,0.615832
0.551968,0.736144,0.724273,0.615771
0.551913,0.736098,0.7242,0.615709
0.551857,0.736053,0.724128,0.615647
0.551802,0.736007,0.724056,0.615586
0.551747,0.735962,0.723983,0.615524
0.551692,0.735917,0.723911,0.615463
0.551637,0.735871,0.723838,0.615401
0.551581,0.735826,0.723766,0.61534
0.551526,0.73578,0.723694,0.615278
0.551471,0.735735,0.723621,0.615217
0.551416,0.73569,0.723549,0.615155
0.551361,0.735644,0.723477,0.615094
0.551306,0.735599,0.723404,0.615032
0.551251,0.735554,0.723332,0.614971
0.551196,0.735508,0.723259,0.614909
0.55114,0.735463,0.723187,0.614848
0.551085,0.735417,0.723115,0.614786
0.55103,0.735372,0.723043,0.614725
0.550975,0.735327,0.72297,0.614663
0.55092,0.735281,0.722898,0.614602
0.550865,0.735236,0.722826,0.61454
0.55081,0.735191,0.722753,0.614479
0.550755,0.735145,0.722681,0.614417
0.5507,0.7351,0.722609,0.614356
0.550645,0.735055,0.722537,0.614294
0.550589,0.735009,0.722464,0.614233
0.550534,0.734964,0.722392,0.614172
0.550479,0.734919,0.72232,0.61411
0.550424,0.734873,0.722248,0.614049
0.550369,0.734828,0.722175,0.613987
0.550314,0.734783,0.722103,0.613926
0.550259,0.734737,0.722031,0.613865
0.550204,0.734692,0.721959,0.613803
0.550149,0.734647,0.721887,0.613742
0.550094,0.734601,0.721814,0.61368
0.550039,0.734556,0.721742,0.613619
0.549984,0.734511,0.72167,0.613558
0.549929,0.734466,0.721598,0.613496
0.549874,0.73442,0.721526,0.613435
0.549819,0.734375,0.721454,0.613374
0.549764,0.73433,0.721381,0.613312
0.549709,0.734284,0.721309,0.613251
0.549654,0.734239,0.721237,0.61319
0.549599,0.734194,0.721165,0.613128
0.549544,0.734149,0.721093,0.613067
0.549489,0.734103,0.721021,0.613006
0.549434,0.734058,0.720949,0.612944
0.549379,0.734013,0.720877,0.612883
0.549325,0.733967,0.720804,0.612822
0.54927,0.733922,0.720732,0.612761
0.549215,0.733877,0.72066,0.612699
0.54916,0.733832,0.720588,0.612638
0.549105,0.733786,0.720516,0.612577
0.54905,0.733741,0.720444,0.612516
0.548995,0.733696,0.720372,0.612454
0.54894,0.733651,0.7203,0.612393
0.548885,0.733605,0.720228,0.612332
0.54883,0.73356,0.720156,0.612271
0.548775,0.733515,0.720084,0.612209
0.548721,0.73347,0.720012,0.612148
0.548666,0.733424,0.71994,0.612087
0.548611,0.733379,0.719868,0.612026
0.548556,0.733334,0.719796,0.611964
0.548501,0.733289,0.719724,0.611903
0.548446,0.733243,0.719652,0.611842
0.548391,0.733198,0.71958,0.611781
0.548337,0.733153,0.719508,0.61172
0.548282,0.733108,0.719436,0.611659
0.548227,0.733063,0.719364,0.611597
0.548172,0.733017,0.719292,0.611536
0.548117,0.732972,0.71922,0.611475
0.548062,0.732927,0.719148,0.611414
0.548008,0.732882,0.719077,0.611353
0.547953,0.732837,0.719005,0.611292
0.547898,0.732791,0.718933,0.611231
0.547843,0.732746,0.718861,0.611169
0.547788,0.732701,0.718789,0.611108
0.547734,0.732656,0.718717,0.611047
0.547679,0.732611,0.718645,0.610986
0.547624,0.732565,0.718573,0.610925
0.547569,0.73252,0.718501,0.610864
0.547515,0.732475,0.71843,0.610803
0.54746,0.73243,0.718358,0.610742
0.547405,0.732385,0.718286,0.610681
0.54735,0.73234,0.718214,0.61062
0.547296,0.732294,0.718142,0.610559
0.547241,0.732249,0.71807,0.610497
0.547186,0.732204,0.717999,0.610436
0.547132,0.732159,0.717927,0.610375
0.547077,0.732114,0.717855,0.610314
0.547022,0.732069,0.717783,0.610253
0.546967,0.732023,0.717711,0.610192
0.546913,0.731978,0.71764,0.610131
0.546858,0.731933,0.717568,0.61007
0.546803,0.731888,0.717496,0.610009
0.546749,0.731843,0.717424,0.609948
0.546694,0.731798,0.717353,0.609887
0.546639,0.731753,0.717281,0.609826
0.546585,0.731707,0.717209,0.609765
0.54653,0.731662,0.717138,0.609704
0.546475,0.731617,0.717066,0.609643
0.546421,0.731572,0.716994,0.609582
0.546366,0.731527,0.716922,0.609521
0.546311,0.731482,0.716851,0.60946
0.546257,0.731437,0.716779,0.6094
0.546202,0.731392,0.716707,0.609339
0.546148,0.731347,0.716636,0.609278
0.546093,0.731301,0.716564,0.609217
0.546038,0.731256,0.716492,0.609156
0.545984,0.731211,0.716421,0.609095
0.545929,0.731166,0.716349,0.609034
0.545874,0.731121,0.716277,0.608973
0.54582,0.731076,0.716206,0.608912
0.545765,0.731031,0.716134,0.608851
0.545711,0.730986,0.716063,0.60879
0.545656,0.730941,0.715991,0.608729
0.545602,0.730896,0.715919,0.608669
0.545547,0.730851,0.715848,0.608608
0.545492,0.730805,0.715776,0.608547
0.545438,0.73076,0.715705,0.608486
0.545383,0.730715,0.715633,0.608425
0.545329,0.73067,0.715561,0.608364
0.545274,0.730625,0.71549,0.608304
0.54522,0.73058,0.715418,0.608243
0.545165,0.730535,0.715347,0.608182
0.545111,0.73049,0.715275,0.608121
0.545056,0.730445,0.715204,0.60806
0.545002,0.7304,0.715132,0.607999
0.544947,0.730355,0.715061,0.607939
0.544893,0.73031,0.714989,0.607878
0.544838,0.730265,0.714918,0.607817
0.544784,0.73022,0.714846,0.607756
0.544729,0.730175,0.714775,0.607695
0.544675,0.73013,0.714703,0.607635
0.54462,0.730085,0.714632,0.607574
0.544566,0.73004,0.71456,0.607513
0.544511,0.729995,0.714489,0.607452
0.544457,0.72995,0.714417,0.607392
0.544403,0.729905,0.714346,0.607331
0.544348,0.72986,0.714275,0.60727
0.544294,0.729815,0.714203,0.607209
0.544239,0.729769,0.714132,0.607149
0.544185,0.729724,0.71406,0.607088
0.54413,0.729679,0.713989,0.607027
0.544076,0.729634,0.713917,0.606967
0.544022,0.729589,0.713846,0.606906
0.543967,0.729544,0.713775,0.606845
0.543913,0.729499,0.713703,0.606785
0.543858,0.729454,0.713632,0.606724
0.543804,0.72941,0.713561,0.606663
0.54375,0.729365,0.713489,0.606603
0.543695,0.72932,0.713418,0.606542
0.543641,0.729275,0.713347,0.606481
0.543587,0.72923,0.713275,0.606421
0.543532,0.729185,0.713204,0.60636
0.543478,0.72914,0.713133,0.606299
0.543423,0.729095,0.713061,0.606239
0.543369,0.72905,0.71299,0.606178
0.543315,0.729005,0.712919,0.606117
0.54326,0.72896,0.712847,0.606057
0.543206,0.728915,0.712776,0.605996
0.543152,0.72887,0.712705,0.605936
0.543097,0.728825,0.712634,0.605875
0.543043,0.72878,0.712562,0.605814
0.542989,0.728735,0.712491,0.605754
0.542935,0.72869,0.71242,0.605693
0.54288,0.728645,0.712349,0.605633
0.542826,0.7286,0.712277,0.605572
0.542772,0.728555,0.712206,0.605512
0.542717,0.72851,0.712135,0.605451
0.542663,0.728465,0.712064,0.605391
0.542609,0.72842,0.711992,0.60533
0.542555,0.728376,0.711921,0.605269
0.5425,0.728331,0.71185,0.605209
0.542446,0.728286,0.711779,0.605148
0.542392,0.728241,0.711708,0.605088
0.542338,0.728196,0.711636,0.605027
0.542283,0.728151,0.711565,0.604967
0.542229,0.728106,0.711494,0.604906
0.542175,0.728061,0.711423,0.604846
0.542121,0.728016,0.711352,0.604785
0.542067,0.727971,0.711281,0.604725
0.542012,0.727926,0.71121,0.604664
0.541958,0.727882,0.711139,0.604604
0.541904,0.727837,0.711067,0.604544
0.54185,0.727792,0.710996,0.604483
0.541796,0.727747,0.710925,0.604423
0.541741,0.727702,0.710854,0.604362
0.541687,0.727657,0.710783,0.604302
0.541633,0.727612,0.710712,0.604241
0.541579,0.727567,0.710641,0.604181
0.541525,0.727522,0.71057,0.60412
0.541471,0.727478,0.710499,0.60406
0.541416,0.727433,0.710428,0.604
0.541362,0.727388,0.710357,0.603939
0.541308,0.727343,0.731594,0.603879
0.540983,0.727298,0.731521,0.603818
0.540659,0.727253,0.731448,0.603758
0.540334,0.727208,0.731375,0.603698
0.54001,0.727164,0.731302,0.603637
0.539686,0.727119,0.731228,0.603577
0.539362,0.727074,0.731155,0.603517
0.539039,0.727029,0.731082,0.603456
0.538716,0.726984,0.731009,0.603396
0.538392,0.726939,0.730936,0.603336
0.538069,0.726895,0.730863,0.603275
0.537746,0.72685,0.73079,0.603215
0.537424,0.726805,0.730717,0.603155
0.537101,0.72676,0.730644,0.603094
0.536779,0.726715,0.730571,0.603034
0.536457,0.72667,0.730498,0.602974
0.536135,0.726626,0.730424,0.602913
0.535814,0.726581,0.730351,0.602853
0.535492,0.726536,0.730278,0.602793
0.535171,0.726491,0.730205,0.602733
0.53485,0.726446,0.730132,0.602672
0.534529,0.726402,0.730059,0.602612
0.534208,0.726357,0.729986,0.602552
0.533888,0.726312,0.729913,0.602491
0.533567,0.726267,0.72984,0.602431
0.533247,0.726222,0.729767,0.602371
0.532927,0.726178,0.729694,0.602311
0.532608,0.726133,0.729621,0.60225
0.532288,0.726088,0.729548,0.60219
0.531969,0.726043,0.729476,0.60213
0.53165,0.725998,0.729403,0.60207
0.531331,0.725954,0.72933,0.60201
0.531278,0.725909,0.729257,0.601949
0.531224,0.725864,0.729184,0.601889
0.531171,0.725819,0.729111,0.601829
0.531118,0.725775,0.729038,0.601769
0.531065,0.72573,0.728965,0.601709
0.531012,0.725685,0.728892,0.601649
0.530959,0.72564,0.728819,0.601588
0.530906,0.725596,0.728746,0.601528
0.530853,0.725551,0.728673,0.601468
0.5308,0.725506,0.728601,0.601408
0.530747,0.725461,0.728528,0.601348
0.530693,0.725417,0.728455,0.601288
0.53064,0.725372,0.728382,0.601227
0.530587,0.725327,0.728309,0.601167
0.530534,0.725282,0.728236,0.601107
0.530481,0.725238,0.728164,0.601047
0.530428,0.725193,0.728091,0.600987
0.530375,0.725148,0.728018,0.600927
0.530322,0.725103,0.727945,0.600867
0.530269,0.725059,0.727872,0.600807
0.530216,0.725014,0.7278,0.600747
0.530163,0.724969,0.727727,0.600687
0.53011,0.724925,0.727654,0.600627
0.530057,0.72488,0.727581,0.600566
0.530004,0.724835,0.727508,0.600506
0.529951,0.72479,0.727436,0.600446
0.529898,0.724746,0.727363,0.600386
0.529845,0.724701,0.72729,0.600326
0.529792,0.724656,0.727218,0.600266
0.529739,0.724612,0.727145,0.600206
0.529686,0.724567,0.727072,0.600146
0.529633,0.724522,0.726999,0.600086
0.52958,0.724478,0.726927,0.600026
0.529527,0.724433,0.726854,0.599966
0.529474,0.724388,0.726781,0.599906
0.529421,0.724344,0.726709,0.599846
0.529368,0.724299,0.726636,0.599786
0.529315,0.724254,0.726563,0.599726
0.529262,0.72421,0.726491,0.599666
0.52921,0.724165,0.726418,0.599606
0.529157,0.72412,0.726345,0.599546
0.529104,0.724076,0.726273,0.599486
0.529051,0.724031,0.7262,0.599426
0.528998,0.723986,0.726127,0.599366
0.528945,0.723942,0.726055,0.599307
0.528892,0.723897,0.725982,0.599247
0.528839,0.723852,0.72591,0.599187
0.528786,0.723808,0.725837,0.599127
0.528733,0.723763,0.725764,0.599067
0.528681,0.723718,0.725692,0.599007
0.528628,0.723674,0.725619,0.598947
0.528575,0.723629,0.725547,0.598887
0.528522,0.723585,0.725474,0.598827
0.528469,0.72354,0.725402,0.598767
0.528416,0.723495,0.725329,0.598707
0.528363,0.723451,0.725257,0.598648
0.528311,0.723406,0.725184,0.598588
0.528258,0.723361,0.725112,0.598528
0.528205,0.723317,0.725039,0.598468
0.528152,0.723272,0.724967,0.598408
0.528099,0.723228,0.724894,0.598348
0.528046,0.723183,0.724822,0.598289
0.527994,0.723138,0.724749,0.598229
0.527941,0.723094,0.724677,0.598169
0.527888,0.723049,0.724604,0.598109
0.527835,0.723005,0.724532,0.598049
0.527783,0.72296,0.724459,0.597989
0.52773,0.722915,0.724387,0.59793
0.527677,0.722871,0.724314,0.59787
0.527624,0.722826,0.724242,0.59781
0.527571,0.722782,0.724169,0.59775
0.527519,0.722737,0.724097,0.597691
0.527466,0.722692,0.724025,0.597631
0.527413,0.722648,0.723952,0.597571
0.52736,0.722603,0.72388,0.597511
0.527308,0.722559,0.723807,0.597451
0.527255,0.722514,0.723735,0.597392
0.527202,0.72247,0.723663,0.597332
0.52715,0.722425,0.72359,0.597272
0.527097,0.722381,0.723518,0.597213
0.527044,0.722336,0.723446,0.597153
0.526991,0.722291,0.723373,0.597093
0.526939,0.722247,0.723301,0.597033
0.526886,0.722202,0.723229,0.596974
0.526833,0.722158,0.723156,0.596914
0.526781,0.722113,0.723084,0.596854
0.526728,0.722069,0.723012,0.596795
0.526675,0.722024,0.722939,0.596735
0.526623,0.72198,0.722867,0.596675
0.52657,0.721935,0.722795,0.596616
0.526517,0.721891,0.722723,0.596556
0.526465,0.721846,0.72265,0.596496
0.526412,0.721802,0.722578,0.596437
0.526359,0.721757,0.722506,0.596377
0.526307,0.721713,0.722433,0.596317
0.526254,0.721668,0.722361,0.596258
0.526201,0.721624,0.722289,0.596198
0.526149,0.721579,0.722217,0.596138
0.526096,0.721535,0.722145,0.596079
0.526044,0.72149,0.722072,0.596019
0.525991,0.721446,0.722,0.59596
0.525938,0.721401,0.721928,0.5959
0.525886,0.721357,0.721856,0.59584
0.525833,0.721312,0.721784,0.595781
0.525781,0.721268,0.721711,0.595721
0.525728,0.721223,0.721639,0.595662
0.525675,0.721179,0.721567,0.595602
0.525623,0.721134,0.721495,0.595543
0.52557,0.72109,0.721423,0.595483
0.525518,0.721045,0.721351,0.595423
0.525465,0.721001,0.721278,0.595364
0.525413,0.720956,0.721206,0.595304
0.52536,0.720912,0.721134,0.595245
0.525308,0.720867,0.721062,0.595185
0.525255,0.720823,0.72099,0.595126
0.525203,0.720778,0.720918,0.595066
0.52515,0.720734,0.720846,0.595007
0.525098,0.720689,0.720774,0.594947
0.525045,0.720645,0.720702,0.594888
0.524993,0.720601,0.72063,0.594828
0.52494,0.720556,0.720557,0.594769
0.524888,0.720512,0.720485,0.594709
0.524835,0.720467,0.720413,0.59465
0.524783,0.720423,0.720341,0.59459
0.52473,0.720378,0.720269,0.594531
0.524678,0.720334,0.720197,0.594472
0.524625,0.72029,0.720125,0.594412
0.524573,0.720245,0.720053,0.594353
0.52452,0.720201,0.719981,0.594293
0.524468,0.720156,0.719909,0.594234
0.524415,0.720112,0.719837,0.594174
0.524363,0.720067,0.719765,0.594115
0.52431,0.720023,0.719693,0.594056
0.524258,0.719979,0.719621,0.593996
0.524206,0.719934,0.719549,0.593937
0.524153,0.71989,0.719477,0.593877
0.524101,0.719845,0.719405,0.593818
0.524048,0.719801,0.719334,0.593759
0.523996,0.719757,0.719262,0.593699
0.523944,0.719712,0.71919,0.59364
0.523891,0.719668,0.719118,0.59358
0.523839,0.719623,0.719046,0.593521
0.523786,0.719579,0.718974,0.593462
0.523734,0.719535,0.718902,0.593402
0.523682,0.71949,0.71883,0.593343
0.523629,0.719446,0.718758,0.593284
0.523577,0.719402,0.718686,0.593224
0.523525,0.719357,0.718615,0.593165
0.523472,0.719313,0.718543,0.593106
0.52342,0.719268,0.718471,0.593046
0.523367,0.719224,0.718399,0.592987
0.523315,0.71918,0.718327,0.592928
0.523263,0.719135,0.718255,0.592869
0.52321,0.719091,0.718183,0.592809
0.523158,0.719047,0.718112,0.59275
0.523106,0.719002,0.71804,0.592691
0.523054,0.718958,0.717968,0.592631
0.523001,0.718914,0.717896,0.592572
0.522949,0.718869,0.717824,0.592513
0.522897,0.718825,0.717753,0.592454
0.522844,0.718781,0.717681,0.592394
0.522792,0.718736,0.717609,0.592335
0.52274,0.718692,0.717537,0.592276
0.522688,0.718648,0.717466,0.592217
0.522635,0.718603,0.717394,0.592157
0.522583,0.718559,0.717322,0.592098
0.522531,0.718515,0.71725,0.592039
0.522478,0.71847,0.717179,0.59198
0.522426,0.718426,0.717107,0.591921
0.522374,0.718382,0.717035,0.591861
0.522322,0.718337,0.716964,0.591802
0.52227,0.718293,0.716892,0.591743
0.522217,0.718249,0.71682,0.591684
0.522165,0.718205,0.716748,0.591625
0.522113,0.71816,0.716677,0.591566
0.522061,0.718116,0.716605,0.591506
0.522008,0.718072,0.716533,0.591447
0.521956,0.718027,0.716462,0.591388
0.521904,0.717983,0.71639,0.591329
0.521852,0.717939,0.716318,0.59127
0.5218,0.717895,0.716247,0.591211
0.521747,0.71785,0.716175,0.591152
0.521695,0.717806,0.716104,0.591093
0.521643,0.717762,0.716032,0.591033
0.521591,0.717717,0.71596,0.590974
0.521539,0.717673,0.715889,0.590915
0.521487,0.717629,0.715817,0.590856
0.521435,0.717585,0.715746,0.590797
0.521382,0.71754,0.715674,0.590738
0.52133,0.717496,0.715603,0.590679
0.521278,0.717452,0.715531,0.59062
0.521226,0.717408,0.715459,0.590561
0.521174,0.717363,0.715388,0.590502
0.521122,0.717319,0.715316,0.590443
0.52107,0.717275,0.715245,0.590384
0.521018,0.717231,0.715173,0.590325
0.520965,0.717186,0.715102,0.590266
0.520913,0.717142,0.71503,0.590206
0.520861,0.717098,0.714959,0.590147
0.520809,0.717054,0.714887,0.590088
0.520757,0.71701,0.714816,0.590029
0.520705,0.716965,0.714744,0.58997
0.520653,0.716921,0.714673,0.589911
0.520601,0.716877,0.714601,0.589852
0.520549,0.716833,0.71453,0.589793
0.520497,0.716789,0.714458,0.589734
0.520445,0.716744,0.714387,0.589676
0.520393,0.7167,0.714316,0.589617
0.520341,0.716656,0.714244,0.589558
0.520289,0.716612,0.714173,0.589499
0.520237,0.716567,0.714101,0.58944
0.520185,0.716523,0.71403,0.589381
0.520132,0.716479,0.713958,0.589322
0.52008,0.716435,0.713887,0.589263
0.520028,0.716391,0.713816,0.589204
0.519976,0.716347,0.713744,0.589145
0.519924,0.716302,0.713673,0.589086
0.519872,0.716258,0.713602,0.589027
0.51982,0.716214,0.71353,0.588968
0.519769,0.71617,0.713459,0.588909
0.519717,0.716126,0.713387,0.588851
0.519665,0.716082,0.713316,0.588792
0.519613,0.716037,0.713245,0.588733
0.519561,0.715993,0.713173,0.588674
0.519509,0.715949,0.713102,0.588615
0.519457,0.715905,0.713031,0.588556
0.519405,0.715861,0.71296,0.588497
0.519353,0.715817,0.712888,0.588438
0.519301,0.715772,0.712817,0.58838
0.519249,0.715728,0.712746,0.588321
0.519197,0.715684,0.712674,0.588262
0.519145,0.71564,0.712603,0.588203
0.519093,0.715596,0.712532,0.588144
0.519041,0.715552,0.712461,0.588085
0.518989,0.715508,0.712389,0.588027
0.518937,0.715463,0.712318,0.587968
0.518886,0.715419,0.712247,0.587909
0.518834,0.715375,0.712176,0.58785
0.518782,0.715331,0.712104,0.587791
0.51873,0.715287,0.712033,0.587733
0.518678,0.715243,0.711962,0.587674
0.518626,0.715199,0.711891,0.587615
0.518574,0.715155,0.71182,0.587556
0.518522,0.715111,0.711748,0.587498
0.518471,0.715066,0.711677,0.587439
0.518419,0.715022,0.711606,0.58738
0.518367,0.714978,0.711535,0.587321
0.518315,0.714934,0.711464,0.587263
0.518263,0.71489,0.711393,0.587204
0.518211,0.714846,0.711322,0.587145
0.51816,0.714802,0.71125,0.587087
0.518108,0.714758,0.711179,0.587028
0.518056,0.714714,0.711108,0.586969
0.518004,0.71467,0.711037,0.58691
0.517952,0.714626,0.710966,0.586852
0.517901,0.714581,0.710895,0.586793
0.517849,0.714537,0.710824,0.586734
0.517797,0.714493,0.710753,0.586676
0.517745,0.714449,0.710682,0.586617
0.517693,0.714405,0.710611,0.586558
0.517642,0.714361,0.710539,0.5865
0.51759,0.714317,0.710468,0.586441
0.517538,0.714273,0.710397,0.586382
