energy,productivity,fun,hunger
0.858008,0.660332,0.854399,0.9999
0.857923,0.660254,0.879943,0.9998
0.857408,0.660175,0.879855,0.9997
0.856893,0.660096,0.879767,0.9996
0.856379,0.660017,0.879679,0.9995
0.855866,0.659938,0.879591,0.9994
0.855352,0.659859,0.879503,0.9993
0.854839,0.65978,0.879415,0.9992
0.854326,0.659701,0.879327,0.9991
0.853813,0.659623,0.879239,0.999
0.853301,0.659544,0.879151,0.998901
0.852789,0.659465,0.879063,0.998801
0.852278,0.659386,0.878975,0.998701
0.851766,0.659307,0.878887,0.998601
0.851255,0.659229,0.878799,0.998501
0.850745,0.65915,0.878712,0.998401
0.850234,0.659071,0.878624,0.998301
0.849724,0.658992,0.878536,0.998202
0.849214,0.658914,0.878448,0.998102
0.848705,0.658835,0.87836,0.998002
0.848196,0.658756,0.878272,0.997902
0.847687,0.658677,0.878184,0.997802
0.847178,0.658599,0.878097,0.997703
0.84667,0.65852,0.878009,0.997603
0.846162,0.658441,0.877921,0.997503
0.845654,0.658363,0.877833,0.997403
0.845147,0.658284,0.877745,0.997304
0.845062,0.658205,0.877658,0.997204
0.844978,0.658127,0.903897,0.997104
0.844471,0.658048,0.903807,0.997004
0.843964,0.657969,0.903716,0.996905
0.843458,0.657891,0.903626,0.996805
0.842952,0.657812,0.903536,0.996705
0.842446,0.657733,0.903445,0.996606
0.841941,0.657655,0.903355,0.996506
0.841436,0.657576,0.903265,0.996406
0.840931,0.657498,0.903174,0.996307
0.840426,0.657419,0.903084,0.996207
0.839922,0.657341,0.902994,0.996107
0.839418,0.657262,0.902903,0.996008
0.838915,0.657183,0.902813,0.995908
0.838411,0.657105,0.902723,0.995809
0.837908,0.657026,0.902632,0.995709
0.837406,0.656948,0.902542,0.995609
0.836903,0.656869,0.902452,0.99551
0.836401,0.656791,0.902362,0.99541
0.835899,0.656712,0.902271,0.995311
0.835398,0.656634,0.902181,0.995211
0.834897,0.656556,0.902091,0.995112
0.834396,0.656477,0.902001,0.995012
0.833895,0.656399,0.901911,0.994913
0.833395,0.65632,0.90182,0.994813
0.832895,0.656242,0.90173,0.994714
0.832395,0.656163,0.90164,0.994614
0.831896,0.656085,0.90155,0.994515
0.831397,0.656007,0.90146,0.994415
0.830898,0.655928,0.90137,0.994316
0.830399,0.65585,0.901279,0.994216
0.829901,0.655771,0.901189,0.994117
0.829403,0.655693,0.901099,0.994018
0.828906,0.655615,0.901009,0.993918
0.828408,0.655536,0.900919,0.993819
0.827911,0.655458,0.900829,0.993719
0.827415,0.65538,0.900739,0.99362
0.826918,0.655301,0.900649,0.993521
0.826422,0.655223,0.900559,0.993421
0.825926,0.655145,0.900469,0.993322
0.825431,0.655066,0.900379,0.993223
0.824936,0.654988,0.900289,0.993123
0.824441,0.65491,0.900198,0.993024
0.823946,0.654832,0.900108,0.992925
0.823452,0.654753,0.900018,0.992826
0.822958,0.654675,0.899928,0.992726
0.822464,0.654597,0.899838,0.992627
0.821971,0.654519,0.899748,0.992528
0.821477,0.65444,0.899658,0.992428
0.820985,0.654362,0.899569,0.992329
0.820492,0.654284,0.899479,0.99223
0.82,0.654206,0.899389,0.992131
0.819508,0.654128,0.899299,0.992032
0.819016,0.65405,0.899209,0.991932
0.818525,0.653971,0.899119,0.991833
0.818034,0.653893,0.899029,0.991734
0.817543,0.653815,0.898939,0.991635
0.817052,0.653737,0.898849,0.991536
0.816562,0.653659,0.898759,0.991436
0.816072,0.653581,0.898669,0.991337
0.815991,0.653503,0.898579,0.991238
0.815909,0.653425,0.925444,0.991139
0.81542,0.653346,0.925352,0.99104
0.81493,0.653268,0.925259,0.990941
0.814442,0.65319,0.925167,0.990842
0.813953,0.653112,0.925074,0.990743
0.813465,0.653034,0.924982,0.990644
0.812977,0.652956,0.924889,0.990545
0.812489,0.652878,0.924797,0.990445
0.812001,0.6528,0.924704,0.990346
0.811514,0.652722,0.924612,0.990247
0.811027,0.652644,0.924519,0.990148
0.810541,0.652566,0.924427,0.990049
0.810054,0.652488,0.924334,0.98995
0.809568,0.65241,0.924242,0.989851
0.809083,0.652332,0.92415,0.989752
0.808597,0.652254,0.924057,0.989653
0.808112,0.652176,0.923965,0.989554
0.807627,0.652098,0.923872,0.989455
0.807143,0.652021,0.92378,0.989357
0.806659,0.651943,0.923688,0.989258
0.806175,0.651865,0.923595,0.989159
0.806094,0.651787,0.923503,0.98906
0.806013,0.651709,0.951113,0.988961
0.80553,0.651631,0.951018,0.988862
0.805047,0.651553,0.950923,0.988763
0.804564,0.651475,0.950827,0.988664
0.804081,0.651397,0.950732,0.988565
0.803598,0.65132,0.950637,0.988466
0.803116,0.651242,0.950542,0.988368
0.802635,0.651164,0.950447,0.988269
0.802153,0.651086,0.950352,0.98817
0.801672,0.651008,0.950257,0.988071
0.801191,0.650931,0.950162,0.987972
0.80071,0.650853,0.950067,0.987874
0.80023,0.650775,0.949972,0.987775
0.79975,0.650697,0.949877,0.987676
0.79927,0.650619,0.949782,0.987577
0.79879,0.650542,0.949687,0.987478
0.798311,0.650464,0.949592,0.98738
0.797832,0.650386,0.949497,0.987281
0.797353,0.650309,0.949402,0.987182
0.796875,0.650231,0.949307,0.987083
0.796397,0.650153,0.949212,0.986985
0.795919,0.650075,0.949117,0.986886
0.795442,0.649998,0.949023,0.986787
0.794964,0.64992,0.948928,0.986689
0.794488,0.649842,0.948833,0.98659
0.794011,0.649765,0.948738,0.986491
0.793534,0.649687,0.948643,0.986393
0.793058,0.649609,0.948548,0.986294
0.792583,0.649532,0.948453,0.986195
0.792107,0.649454,0.948358,0.986097
0.791632,0.649377,0.948264,0.985998
0.791157,0.649299,0.948169,0.9859
0.790682,0.649221,0.948074,0.985801
0.790603,0.649144,0.947979,0.985702
0.790524,0.649066,0.976321,0.985604
0.79005,0.648989,0.976223,0.985505
0.789576,0.648911,0.976126,0.985407
0.789102,0.648834,0.976028,0.985308
0.788629,0.648756,0.97593,0.98521
0.788156,0.648679,0.975833,0.985111
0.787683,0.648601,0.975735,0.985013
0.78721,0.648524,0.975638,0.984914
0.786738,0.648446,0.97554,0.984816
0.786266,0.648369,0.975443,0.984717
0.785794,0.648291,0.975345,0.984619
0.785323,0.648214,0.975247,0.98452
0.784852,0.648136,0.97515,0.984422
0.784381,0.648059,0.975052,0.984323
0.78391,0.647981,0.974955,0.984225
0.78344,0.647904,0.974857,0.984127
0.78297,0.647826,0.97476,0.984028
0.7825,0.647749,0.974662,0.98393
0.782031,0.647672,0.974565,0.983831
0.781561,0.647594,0.974468,0.983733
0.781093,0.647517,0.97437,0.983635
0.780624,0.647439,0.974273,0.983536
0.780156,0.647362,0.974175,0.983438
0.779688,0.647285,0.974078,0.98334
0.77922,0.647207,0.97398,0.983241
0.778752,0.64713,0.973883,0.983143
0.778285,0.647053,0.973786,0.983045
0.777818,0.646975,0.973688,0.982946
0.777351,0.646898,0.973591,0.982848
0.776885,0.646821,0.973494,0.98275
0.776419,0.646743,0.973396,0.982651
0.775953,0.646666,0.973299,0.982553
0.775488,0.646589,0.973201,0.982455
0.775022,0.646512,0.973104,0.982357
0.774557,0.646434,0.973007,0.982258
0.774093,0.646357,0.97291,0.98216
0.773628,0.64628,0.972812,0.982062
0.773164,0.646203,0.972715,0.981964
0.7727,0.646125,0.972618,0.981866
0.772237,0.646048,0.97252,0.981767
0.771773,0.645971,0.972423,0.981669
0.77131,0.645894,0.972326,0.981571
0.770848,0.645817,0.972229,0.981473
0.770385,0.64574,0.972132,0.981375
0.769923,0.645662,0.972034,0.981277
0.769461,0.645585,0.971937,0.981178
0.769384,0.645508,0.97184,0.98108
0.769307,0.645431,1,0.980982
0.768846,0.645354,0.9999,0.980884
0.768384,0.645277,0.9998,0.980786
0.767923,0.6452,0.9997,0.980688
0.767463,0.645122,0.9996,0.98059
0.767002,0.645045,0.9995,0.980492
0.766542,0.644968,0.9994,0.980394
0.766082,0.644891,0.9993,0.980296
0.765623,0.644814,0.9992,0.980198
0.765163,0.644737,0.9991,0.9801
0.764704,0.64466,0.999,0.980002
0.764245,0.644583,0.998901,0.979904
0.763787,0.644506,0.998801,0.979806
0.763329,0.644429,0.998701,0.979708
0.763252,0.644352,0.998601,0.97961
0.763176,0.644275,1,0.979512
0.762718,0.644198,0.9999,0.979414
0.762261,0.644121,0.9998,0.979316
0.761803,0.644044,0.9997,0.979218
0.761346,0.643967,0.9996,0.97912
0.760889,0.64389,0.9995,0.979022
0.760433,0.643813,0.9994,0.978924
0.759977,0.643736,0.9993,0.978826
0.759521,0.643659,0.9992,0.978728
0.759065,0.643582,0.9991,0.978631
0.75861,0.643506,0.999,0.978533
0.758155,0.643429,0.998901,0.978435
0.7577,0.643352,0.998801,0.978337
0.757245,0.643275,0.998701,0.978239
0.756791,0.643198,0.998601,0.978141
0.756337,0.643121,0.998501,0.978044
0.755883,0.643044,0.998401,0.977946
0.755429,0.642967,0.998301,0.977848
0.754976,0.642891,0.998202,0.97775
0.754523,0.642814,0.998102,0.977652
0.754071,0.642737,0.998002,0.977555
0.753618,0.64266,0.997902,0.977457
0.753166,0.642583,0.997802,0.977359
0.752714,0.642507,0.997703,0.977261
0.752263,0.64243,0.997603,0.977164
0.751811,0.642353,0.997503,0.977066
0.75136,0.642276,0.997403,0.976968
0.75091,0.6422,0.997304,0.976871
0.750459,0.642123,0.997204,0.976773
0.750009,0.642046,0.997104,0.976675
0.749559,0.641969,0.997004,0.976577
0.749109,0.641893,0.996905,0.97648
0.74866,0.641816,0.996805,0.976382
0.748211,0.641739,0.996705,0.976285
0.747762,0.641663,0.996606,0.976187
0.747313,0.641586,0.996506,0.976089
0.746865,0.641509,0.996406,0.975992
0.746417,0.641433,0.996307,0.975894
0.745969,0.641356,0.996207,0.975796
0.745521,0.641279,0.996107,0.975699
0.745074,0.641203,0.996008,0.975601
0.744627,0.641126,0.995908,0.975504
0.74418,0.641049,0.995809,0.975406
0.743734,0.640973,0.995709,0.975309
0.743288,0.640896,0.995609,0.975211
0.742842,0.64082,0.99551,0.975114
0.742396,0.640743,0.99541,0.975016
0.741951,0.640666,0.995311,0.974919
0.741505,0.64059,0.995211,0.974821
0.741061,0.640513,0.995112,0.974724
0.740986,0.640437,0.995012,0.974626
0.740912,0.64036,1,0.974529
0.740468,0.640284,0.9999,0.974431
0.740024,0.640207,0.9998,0.974334
0.73958,0.640131,0.9997,0.974236
0.739136,0.640054,0.9996,0.974139
0.738692,0.639978,0.9995,0.974042
0.738249,0.639901,0.9994,0.973944
0.737806,0.639825,0.9993,0.973847
0.737364,0.639748,0.9992,0.973749
0.736921,0.639672,0.9991,0.973652
0.736479,0.639595,0.999,0.973555
0.736037,0.639519,0.998901,0.973457
0.735596,0.639443,0.998801,0.97336
0.735154,0.639366,0.998701,0.973263
0.734713,0.63929,0.998601,0.973165
0.734273,0.639213,0.998501,0.973068
0.733832,0.639137,0.998401,0.972971
0.733392,0.639061,0.998301,0.972873
0.732952,0.638984,0.998202,0.972776
0.732512,0.638908,0.998102,0.972679
0.732073,0.638832,0.998002,0.972582
0.731633,0.638755,0.997902,0.972484
0.73156,0.638679,0.997802,0.972387
0.731487,0.638603,1,0.97229
0.731048,0.638526,0.9999,0.972193
0.73061,0.63845,0.9998,0.972095
0.730171,0.638374,0.9997,0.971998
0.729733,0.638297,0.9996,0.971901
0.729295,0.638221,0.9995,0.971804
0.728858,0.638145,0.9994,0.971707
0.728421,0.638069,0.9993,0.971609
0.727984,0.637992,0.9992,0.971512
0.727547,0.637916,0.9991,0.971415
0.72711,0.63784,0.999,0.971318
0.726674,0.637764,0.998901,0.971221
0.726238,0.637687,0.998801,0.971124
0.725802,0.637611,0.998701,0.971027
0.725367,0.637535,0.998601,0.970929
0.724932,0.637459,0.998501,0.970832
0.724497,0.637383,0.998401,0.970735
0.724062,0.637307,0.998301,0.970638
0.723628,0.63723,0.998202,0.970541
0.723194,0.637154,0.998102,0.970444
0.72276,0.637078,0.998002,0.970347
0.722326,0.637002,0.997902,0.97025
0.721893,0.636926,0.997802,0.970153
0.72146,0.63685,0.997703,0.970056
0.721027,0.636774,0.997603,0.969959
0.720594,0.636698,0.997503,0.969862
0.720162,0.636621,0.997403,0.969765
0.71973,0.636545,0.997304,0.969668
0.719298,0.636469,0.997204,0.969571
0.719226,0.636393,0.997104,0.969474
0.719154,0.636317,1,0.969377
0.718723,0.636241,0.9999,0.96928
0.718292,0.636165,0.9998,0.969183
0.717861,0.636089,0.9997,0.969086
0.71743,0.636013,0.9996,0.968989
0.717,0.635937,0.9995,0.968893
0.716569,0.635861,0.9994,0.968796
0.716139,0.635785,0.9993,0.968699
0.71571,0.635709,0.9992,0.968602
0.71528,0.635633,0.9991,0.968505
0.714851,0.635557,0.999,0.968408
0.714422,0.635481,0.998901,0.968311
0.713994,0.635405,0.998801,0.968215
0.713565,0.635329,0.998701,0.968118
0.713137,0.635254,0.998601,0.968021
0.71271,0.635178,0.998501,0.967924
0.712282,0.635102,0.998401,0.967827
0.711855,0.635026,0.998301,0.96773
0.711428,0.63495,0.998202,0.967634
0.711001,0.634874,0.998102,0.967537
0.710574,0.634798,0.998002,0.96744
0.710503,0.634722,0.997902,0.967343
0.710432,0.634646,1,0.967247
0.710006,0.634571,0.9999,0.96715
0.70958,0.634495,0.9998,0.967053
0.709154,0.634419,0.9997,0.966957
0.708729,0.634343,0.9996,0.96686
0.708303,0.634267,0.9995,0.966763
0.707879,0.634192,0.9994,0.966667
0.707454,0.634116,0.9993,0.96657
0.707029,0.63404,0.9992,0.966473
0.706605,0.633964,0.9991,0.966377
0.706181,0.633889,0.999,0.96628
0.705758,0.633813,0.998901,0.966183
0.705334,0.633737,0.998801,0.966087
0.704911,0.633661,0.998701,0.96599
0.704488,0.633586,0.998601,0.965893
0.704065,0.63351,0.998501,0.965797
0.703643,0.633434,0.998401,0.9657
0.703221,0.633358,0.998301,0.965604
0.702799,0.633283,0.998202,0.965507
0.702377,0.633207,0.998102,0.965411
0.701956,0.633131,0.998002,0.965314
0.701535,0.633056,0.997902,0.965218
0.701114,0.63298,0.997802,0.965121
0.700693,0.632905,0.997703,0.965025
0.700273,0.632829,0.997603,0.964928
0.699853,0.632753,0.997503,0.964832
0.699433,0.632678,0.997403,0.964735
0.699013,0.632602,0.997304,0.964639
0.698594,0.632526,0.997204,0.964542
0.698175,0.632451,0.997104,0.964446
0.698105,0.632375,0.997004,0.964349
0.698035,0.6323,1,0.964253
0.697616,0.632224,0.9999,0.964156
0.697198,0.632149,0.9998,0.96406
0.69678,0.632073,0.9997,0.963964
0.696362,0.631998,0.9996,0.963867
0.695944,0.631922,0.9995,0.963771
0.695526,0.631847,0.9994,0.963674
0.695109,0.631771,0.9993,0.963578
0.694692,0.631696,0.9992,0.963482
0.694275,0.63162,0.9991,0.963385
0.693859,0.631545,0.999,0.963289
0.693442,0.631469,0.998901,0.963193
0.693026,0.631394,0.998801,0.963096
0.692611,0.631318,0.998701,0.963
0.692195,0.631243,0.998601,0.962904
0.69178,0.631167,0.998501,0.962807
0.691365,0.631092,0.998401,0.962711
0.69095,0.631016,0.998301,0.962615
0.690535,0.630941,0.998202,0.962519
0.690121,0.630866,0.998102,0.962422
0.689707,0.63079,0.998002,0.962326
0.689293,0.630715,0.997902,0.96223
0.68888,0.63064,0.997802,0.962134
0.688466,0.630564,0.997703,0.962037
0.688053,0.630489,0.997603,0.961941
0.687641,0.630413,0.997503,0.961845
0.687228,0.630338,0.997403,0.961749
0.686816,0.630263,0.997304,0.961653
0.686404,0.630188,0.997204,0.961556
0.685992,0.630112,0.997104,0.96146
0.68558,0.630037,0.997004,0.961364
0.685169,0.629962,0.996905,0.961268
0.684758,0.629886,0.996805,0.961172
0.684347,0.629811,0.996705,0.961076
0.683936,0.629736,0.996606,0.96098
0.683526,0.629661,0.996506,0.960884
0.683458,0.629585,0.996406,0.960788
0.683389,0.62951,1,0.960691
0.682979,0.629435,0.9999,0.960595
0.68257,0.62936,0.9998,0.960499
0.68216,0.629284,0.9997,0.960403
0.681751,0.629209,0.9996,0.960307
0.681342,0.629134,0.9995,0.960211
0.680933,0.629059,0.9994,0.960115
0.680525,0.628984,0.9993,0.960019
0.680116,0.628909,0.9992,0.959923
0.679708,0.628833,0.9991,0.959827
0.679301,0.628758,0.999,0.959731
0.678893,0.628683,0.998901,0.959635
0.678486,0.628608,0.998801,0.959539
0.678079,0.628533,0.998701,0.959443
0.677672,0.628458,0.998601,0.959347
0.677265,0.628383,0.998501,0.959251
0.676859,0.628308,0.998401,0.959155
0.676453,0.628233,0.998301,0.95906
0.676047,0.628157,0.998202,0.958964
0.675641,0.628082,0.998102,0.958868
0.675236,0.628007,0.998002,0.958772
0.674831,0.627932,0.997902,0.958676
0.674426,0.627857,0.997802,0.95858
0.674021,0.627782,0.997703,0.958484
0.673617,0.627707,0.997603,0.958388
0.673213,0.627632,0.997503,0.958293
0.672809,0.627557,0.997403,0.958197
0.672405,0.627482,0.997304,0.958101
0.672002,0.627407,0.997204,0.958005
0.671599,0.627332,0.997104,0.957909
0.671196,0.627257,0.997004,0.957814
0.670793,0.627182,0.996905,0.957718
0.670391,0.627107,0.996805,0.957622
0.669989,0.627032,0.996705,0.957526
0.669587,0.626958,0.996606,0.95743
0.669185,0.626883,0.996506,0.957335
0.668783,0.626808,0.996406,0.957239
0.668382,0.626733,0.996307,0.957143
0.667981,0.626658,0.996207,0.957048
0.66758,0.626583,0.996107,0.956952
0.66718,0.626508,0.996008,0.956856
0.66678,0.626433,0.995908,0.95676
0.666713,0.626358,0.995809,0.956665
0.666646,0.626284,1,0.956569
0.666246,0.626209,0.9999,0.956473
0.665847,0.626134,0.9998,0.956378
0.665447,0.626059,0.9997,0.956282
0.665048,0.625984,0.9996,0.956187
0.664649,0.625909,0.9995,0.956091
0.66425,0.625835,0.9994,0.955995
0.663852,0.62576,0.9993,0.9559
0.663453,0.625685,0.9992,0.955804
0.663055,0.62561,0.9991,0.955709
0.662658,0.625536,0.999,0.955613
0.66226,0.625461,0.998901,0.955517
0.661863,0.625386,0.998801,0.955422
0.661466,0.625311,0.998701,0.955326
0.661069,0.625237,0.998601,0.955231
0.660672,0.625162,0.998501,0.955135
0.660276,0.625087,0.998401,0.95504
0.65988,0.625013,0.998301,0.954944
0.659484,0.624938,0.998202,0.954849
0.659088,0.624863,0.998102,0.954753
0.658693,0.624788,0.998002,0.954658
0.658297,0.624714,0.997902,0.954562
0.657902,0.624639,0.997802,0.954467
0.657508,0.624565,0.997703,0.954371
0.657113,0.62449,0.997603,0.954276
0.656719,0.624415,0.997503,0.954181
0.656325,0.624341,0.997403,0.954085
0.655931,0.624266,0.997304,0.95399
0.655538,0.624191,0.997204,0.953894
0.655144,0.624117,0.997104,0.953799
0.654751,0.624042,0.997004,0.953704
0.654359,0.623968,0.996905,0.953608
0.653966,0.623893,0.996805,0.953513
0.653574,0.623819,0.996705,0.953417
0.653182,0.623744,0.996606,0.953322
0.65279,0.62367,0.996506,0.953227
0.652398,0.623595,0.996406,0.953131
0.652333,0.62352,0.996307,0.953036
0.652268,0.623446,1,0.952941
0.651876,0.623371,0.9999,0.952846
0.651485,0.623297,0.9998,0.95275
0.651094,0.623222,0.9997,0.952655
0.650704,0.623148,0.9996,0.95256
0.650313,0.623074,0.9995,0.952465
0.649923,0.622999,0.9994,0.952369
0.649533,0.622925,0.9993,0.952274
0.649144,0.62285,0.9992,0.952179
0.648754,0.622776,0.9991,0.952084
0.648365,0.622701,0.999,0.951988
0.6483,0.622627,0.998901,0.951893
0.648235,0.622553,1,0.951798
0.647846,0.622478,0.9999,0.951703
0.647458,0.622404,0.9998,0.951608
0.647069,0.622329,0.9997,0.951512
0.646681,0.622255,0.9996,0.951417
0.646293,0.622181,0.9995,0.951322
0.645905,0.622106,0.9994,0.951227
0.645518,0.622032,0.9993,0.951132
0.64513,0.621958,0.9992,0.951037
0.644743,0.621883,0.9991,0.950942
0.644357,0.621809,0.999,0.950847
0.64397,0.621735,0.998901,0.950752
0.643584,0.62166,0.998801,0.950656
0.643198,0.621586,0.998701,0.950561
0.642812,0.621512,0.998601,0.950466
0.642426,0.621438,0.998501,0.950371
0.642041,0.621363,0.998401,0.950276
0.641655,0.621289,0.998301,0.950181
0.64127,0.621215,0.998202,0.950086
0.640886,0.621141,0.998102,0.949991
0.640501,0.621066,0.998002,0.949896
0.640117,0.620992,0.997902,0.949801
0.639733,0.620918,0.997802,0.949706
0.639669,0.620844,0.997703,0.949611
0.639605,0.62077,1,0.949516
0.639221,0.620695,0.9999,0.949421
0.638838,0.620621,0.9998,0.949326
0.638454,0.620547,0.9997,0.949231
0.638071,0.620473,0.9996,0.949137
0.637689,0.620399,0.9995,0.949042
0.637306,0.620325,0.9994,0.948947
0.636924,0.62025,0.9993,0.948852
0.636542,0.620176,0.9992,0.948757
0.63616,0.620102,0.9991,0.948662
0.635778,0.620028,0.999,0.948567
0.635397,0.619954,0.998901,0.948472
0.635015,0.61988,0.998801,0.948377
0.634634,0.619806,0.998701,0.948283
0.634254,0.619732,0.998601,0.948188
0.633873,0.619658,0.998501,0.948093
0.633493,0.619584,0.998401,0.947998
0.633113,0.61951,0.998301,0.947903
0.632733,0.619436,0.998202,0.947809
0.632353,0.619362,0.998102,0.947714
0.631974,0.619288,0.998002,0.947619
0.631595,0.619214,0.997902,0.947524
0.631216,0.61914,0.997802,0.94743
0.630837,0.619066,0.997703,0.947335
0.630459,0.618992,0.997603,0.94724
0.63008,0.618918,0.997503,0.947145
0.629702,0.618844,0.997403,0.947051
0.629639,0.61877,0.997304,0.946956
0.629576,0.618696,1,0.946861
0.629199,0.618622,0.9999,0.946767
0.628821,0.618548,0.9998,0.946672
0.628444,0.618474,0.9997,0.946577
0.628067,0.6184,0.9996,0.946483
0.62769,0.618326,0.9995,0.946388
0.627314,0.618252,0.9994,0.946293
0.626937,0.618179,0.9993,0.946199
0.626561,0.618105,0.9992,0.946104
0.626185,0.618031,0.9991,0.946009
0.62581,0.617957,0.999,0.945915
0.625434,0.617883,0.998901,0.94582
0.625059,0.617809,0.998801,0.945726
0.624684,0.617735,0.998701,0.945631
0.624309,0.617662,0.998601,0.945536
0.623934,0.617588,0.998501,0.945442
0.62356,0.617514,0.998401,0.945347
0.623186,0.61744,0.998301,0.945253
0.622812,0.617366,0.998202,0.945158
0.622439,0.617293,0.998102,0.945064
0.622065,0.617219,0.998002,0.944969
0.622003,0.617145,0.997902,0.944875
0.621941,0.617071,1,0.94478
0.621568,0.616998,0.9999,0.944686
0.621195,0.616924,0.9998,0.944591
0.620822,0.61685,0.9997,0.944497
