energy,productivity,fun,hunger
0.625676,0.8071,0.613717,0.870883
0.625614,0.807087,0.632066,0.870796
0.625238,0.807074,0.650962,0.870709
0.624863,0.807062,0.670424,0.870622
0.624488,0.807049,0.690468,0.870535
0.624114,0.807036,0.711111,0.870448
0.623739,0.807023,0.732371,0.870361
0.623365,0.807011,0.732298,0.870274
0.622991,0.806998,0.732224,0.870187
0.622617,0.806985,0.732151,0.8701
0.622244,0.806972,0.732078,0.870013
0.62187,0.80696,0.732005,0.869926
0.621497,0.806947,0.731932,0.869839
0.621124,0.806934,0.731858,0.869752
0.620752,0.806922,0.731785,0.869665
0.620379,0.806909,0.731712,0.869578
0.620007,0.806896,0.731639,0.869491
0.619635,0.806883,0.731566,0.869404
0.619263,0.806871,0.731493,0.869317
0.618892,0.806858,0.731419,0.86923
0.618521,0.806845,0.731346,0.869143
0.618149,0.806833,0.731273,0.869056
0.617779,0.80682,0.7312,0.868969
0.617408,0.806807,0.731127,0.868883
0.617038,0.806794,0.731054,0.868796
0.616667,0.806782,0.730981,0.868709
0.616297,0.806769,0.730908,0.868622
0.615928,0.806756,0.730834,0.868535
0.615558,0.806744,0.730761,0.868448
0.615189,0.806731,0.730688,0.868361
0.61482,0.806718,0.730615,0.868275
0.614451,0.806705,0.730542,0.868188
0.614082,0.806693,0.730469,0.868101
0.613714,0.80668,0.730396,0.868014
0.613346,0.806667,0.730323,0.867927
0.612978,0.806655,0.73025,0.86784
0.61261,0.806642,0.730177,0.867754
0.612242,0.806629,0.730104,0.867667
0.611875,0.806616,0.730031,0.86758
0.611508,0.806604,0.729958,0.867493
0.611141,0.806591,0.729885,0.867407
0.610774,0.806578,0.729812,0.86732
0.610408,0.806566,0.729739,0.867233
0.610042,0.806553,0.729666,0.867146
0.609676,0.80654,0.729593,0.86706
0.609615,0.806527,0.72952,0.866973
0.609554,0.806515,0.729447,0.866886
0.609493,0.806502,0.729374,0.8668
0.609432,0.806489,0.729301,0.866713
0.609371,0.806477,0.729228,0.866626
0.60931,0.806464,0.729155,0.86654
0.609249,0.806451,0.729082,0.866453
0.609188,0.806438,0.72901,0.866366
0.609127,0.806426,0.728937,0.86628
0.609066,0.806413,0.728864,0.866193
0.609005,0.8064,0.728791,0.866106
0.608945,0.806388,0.728718,0.86602
0.608884,0.806375,0.728645,0.865933
0.608823,0.806362,0.728572,0.865847
0.608762,0.806349,0.728499,0.86576
0.608701,0.806337,0.728427,0.865673
0.60864,0.806324,0.728354,0.865587
0.608579,0.806311,0.728281,0.8655
0.608518,0.806299,0.728208,0.865414
0.608458,0.806286,0.728135,0.865327
0.608397,0.806273,0.728062,0.865241
0.608336,0.806261,0.72799,0.865154
0.608275,0.806248,0.727917,0.865068
0.608214,0.806235,0.727844,0.864981
0.608153,0.806222,0.727771,0.864895
0.608093,0.80621,0.727698,0.864808
0.608032,0.806197,0.727626,0.864722
0.607971,0.806184,0.727553,0.864635
0.60791,0.806172,0.72748,0.864549
0.607849,0.806159,0.727407,0.864462
0.607789,0.806146,0.727335,0.864376
0.607728,0.806133,0.727262,0.864289
0.607667,0.806121,0.727189,0.864203
0.607606,0.806108,0.727117,0.864117
0.607546,0.806095,0.727044,0.86403
0.607485,0.806083,0.726971,0.863944
0.607424,0.80607,0.726898,0.863857
0.607363,0.806057,0.726826,0.863771
0.607303,0.806045,0.726753,0.863685
0.607242,0.806032,0.72668,0.863598
0.607181,0.806019,0.726608,0.863512
0.60712,0.806006,0.726535,0.863426
0.60706,0.805994,0.726462,0.863339
0.606999,0.805981,0.72639,0.863253
0.606938,0.805968,0.726317,0.863167
0.606878,0.805956,0.726244,0.86308
0.606817,0.805943,0.726172,0.862994
0.606756,0.80593,0.726099,0.862908
0.606696,0.805917,0.726027,0.862821
0.606635,0.805905,0.725954,0.862735
0.606574,0.805892,0.725881,0.862649
0.606514,0.805879,0.725809,0.862562
0.606453,0.805867,0.725736,0.862476
0.606392,0.805854,0.725664,0.86239
0.606332,0.805841,0.725591,0.862304
0.606271,0.805829,0.725519,0.862218
0.60621,0.805816,0.725446,0.862131
0.60615,0.805803,0.725373,0.862045
0.606089,0.80579,0.725301,0.861959
0.606028,0.805778,0.725228,0.861873
0.605968,0.805765,0.725156,0.861786
0.605907,0.805752,0.725083,0.8617
0.605847,0.80574,0.725011,0.861614
0.605786,0.805727,0.724938,0.861528
0.605726,0.805714,0.724866,0.861442
0.605665,0.805702,0.724793,0.861356
0.605604,0.805689,0.724721,0.86127
0.605544,0.805676,0.724648,0.861183
0.605483,0.805663,0.724576,0.861097
0.605423,0.805651,0.724503,0.861011
0.605362,0.805638,0.724431,0.860925
0.605302,0.805625,0.724359,0.860839
0.605241,0.805613,0.724286,0.860753
0.605181,0.8056,0.724214,0.860667
0.60512,0.805587,0.724141,0.860581
0.60506,0.805575,0.724069,0.860495
0.604999,0.805562,0.723996,0.860409
0.604939,0.805549,0.723924,0.860323
0.604878,0.805537,0.723852,0.860237
0.604818,0.805524,0.723779,0.860151
0.604757,0.805511,0.723707,0.860065
0.604697,0.805498,0.723635,0.859979
0.604636,0.805486,0.723562,0.859893
0.604576,0.805473,0.72349,0.859807
0.604515,0.80546,0.723417,0.859721
0.604455,0.805448,0.723345,0.859635
0.604394,0.805435,0.723273,0.859549
0.604334,0.805422,0.7232,0.859463
0.604273,0.80541,0.723128,0.859377
0.604213,0.805397,0.723056,0.859291
0.604153,0.805384,0.722984,0.859205
0.604092,0.805371,0.722911,0.859119
0.604032,0.805359,0.722839,0.859033
0.603971,0.805346,0.722767,0.858947
0.603911,0.805333,0.722694,0.858861
0.603851,0.805321,0.722622,0.858775
0.60379,0.805308,0.72255,0.858689
0.60373,0.805295,0.722478,0.858604
0.603669,0.805283,0.722405,0.858518
0.603609,0.80527,0.722333,0.858432
0.603549,0.805257,0.722261,0.858346
0.603488,0.805245,0.722189,0.85826
0.603428,0.805232,0.722116,0.858174
0.603368,0.805219,0.722044,0.858089
0.603307,0.805206,0.721972,0.858003
0.603247,0.805194,0.7219,0.857917
0.603187,0.805181,0.721828,0.857831
0.603126,0.805168,0.721755,0.857745
0.603066,0.805156,0.721683,0.85766
0.603006,0.805143,0.721611,0.857574
0.602945,0.80513,0.721539,0.857488
0.602885,0.805118,0.721467,0.857402
0.602825,0.805105,0.721395,0.857317
0.602765,0.805092,0.721322,0.857231
0.602704,0.80508,0.72125,0.857145
0.602644,0.805067,0.721178,0.857059
0.602584,0.805054,0.721106,0.856974
0.602524,0.805042,0.721034,0.856888
0.602463,0.805029,0.720962,0.856802
0.602403,0.805016,0.72089,0.856717
0.602343,0.805003,0.720818,0.856631
0.602283,0.804991,0.720746,0.856545
0.602222,0.804978,0.720674,0.85646
0.602162,0.804965,0.720601,0.856374
0.602102,0.804953,0.720529,0.856288
0.602042,0.80494,0.720457,0.856203
0.601981,0.804927,0.720385,0.856117
0.601921,0.804915,0.720313,0.856032
0.601861,0.804902,0.720241,0.855946
0.601801,0.804889,0.720169,0.85586
0.601741,0.804877,0.720097,0.855775
0.601681,0.804864,0.720025,0.855689
0.60162,0.804851,0.719953,0.855604
0.60156,0.804839,0.719881,0.855518
0.6015,0.804826,0.719809,0.855433
0.60144,0.804813,0.719737,0.855347
0.60138,0.8048,0.719665,0.855261
0.60132,0.804788,0.719593,0.855176
0.601259,0.804775,0.719521,0.85509
0.601199,0.804762,0.719449,0.855005
0.601139,0.80475,0.719377,0.854919
0.601079,0.804737,0.719306,0.854834
0.601019,0.804724,0.719234,0.854748
0.600959,0.804712,0.719162,0.854663
0.600899,0.804699,0.71909,0.854577
0.600839,0.804686,0.719018,0.854492
0.600779,0.804674,0.718946,0.854407
0.600719,0.804661,0.718874,0.854321
0.600658,0.804648,0.718802,0.854236
0.600598,0.804636,0.71873,0.85415
0.600538,0.804623,0.718658,0.854065
0.600478,0.80461,0.718587,0.853979
0.600418,0.804598,0.718515,0.853894
0.600358,0.804585,0.718443,0.853809
0.600298,0.804572,0.718371,0.853723
0.600238,0.804559,0.718299,0.853638
0.600178,0.804547,0.718227,0.853553
0.600118,0.804534,0.718155,0.853467
0.600058,0.804521,0.718084,0.853382
0.599998,0.804509,0.718012,0.853296
0.599938,0.804496,0.71794,0.853211
0.599878,0.804483,0.717868,0.853126
0.599818,0.804471,0.717796,0.853041
0.599758,0.804458,0.717725,0.852955
0.599698,0.804445,0.717653,0.85287
0.599638,0.804433,0.717581,0.852785
0.599578,0.80442,0.717509,0.852699
0.599518,0.804407,0.717438,0.852614
0.599458,0.804395,0.717366,0.852529
0.599398,0.804382,0.717294,0.852444
0.599338,0.804369,0.717222,0.852358
0.599279,0.804357,0.717151,0.852273
0.599219,0.804344,0.717079,0.852188
0.599159,0.804331,0.717007,0.852103
0.599099,0.804319,0.716936,0.852017
0.599039,0.804306,0.716864,0.851932
0.598979,0.804293,0.716792,0.851847
0.598919,0.804281,0.716721,0.851762
0.598859,0.804268,0.716649,0.851677
0.598799,0.804255,0.716577,0.851592
0.598739,0.804243,0.716506,0.851506
0.598679,0.80423,0.716434,0.851421
0.59862,0.804217,0.716362,0.851336
0.59856,0.804204,0.716291,0.851251
0.5985,0.804192,0.716219,0.851166
0.59844,0.804179,0.716147,0.851081
0.59838,0.804166,0.716076,0.850996
0.59832,0.804154,0.716004,0.85091
0.598261,0.804141,0.715933,0.850825
0.598201,0.804128,0.715861,0.85074
0.598141,0.804116,0.715789,0.850655
0.598081,0.804103,0.715718,0.85057
0.598021,0.80409,0.715646,0.850485
0.597961,0.804078,0.715575,0.8504
0.597902,0.804065,0.715503,0.850315
0.597842,0.804052,0.715432,0.85023
0.597782,0.80404,0.71536,0.850145
0.597722,0.804027,0.715288,0.85006
0.597663,0.804014,0.715217,0.849975
0.597603,0.804002,0.715145,0.84989
0.597543,0.803989,0.715074,0.849805
0.597483,0.803976,0.715002,0.84972
0.597424,0.803964,0.714931,0.849635
0.597364,0.803951,0.714859,0.84955
0.597304,0.803938,0.714788,0.849465
0.597244,0.803926,0.714716,0.84938
0.597185,0.803913,0.714645,0.849295
0.597125,0.8039,0.714573,0.84921
0.597065,0.803888,0.714502,0.849125
0.597005,0.803875,0.714431,0.84904
0.596946,0.803862,0.714359,0.848956
0.596886,0.80385,0.714288,0.848871
0.596826,0.803837,0.714216,0.848786
0.596767,0.803824,0.714145,0.848701
0.596707,0.803812,0.714073,0.848616
0.596647,0.803799,0.714002,0.848531
0.596588,0.803786,0.713931,0.848446
0.596528,0.803774,0.713859,0.848361
0.596468,0.803761,0.713788,0.848277
0.596409,0.803748,0.713716,0.848192
0.596349,0.803736,0.713645,0.848107
0.596289,0.803723,0.713574,0.848022
0.59623,0.80371,0.713502,0.847937
0.59617,0.803698,0.713431,0.847853
0.596111,0.803685,0.71336,0.847768
0.596051,0.803672,0.713288,0.847683
0.595991,0.80366,0.713217,0.847598
0.595932,0.803647,0.713146,0.847513
0.595872,0.803634,0.713074,0.847429
0.595813,0.803622,0.713003,0.847344
0.595753,0.803609,0.712932,0.847259
0.595693,0.803596,0.71286,0.847175
0.595634,0.803584,0.712789,0.84709
0.595574,0.803571,0.712718,0.847005
0.595515,0.803558,0.712647,0.84692
0.595455,0.803546,0.712575,0.846836
0.595396,0.803533,0.712504,0.846751
0.595336,0.80352,0.712433,0.846666
0.595277,0.803508,0.712362,0.846582
0.595217,0.803495,0.71229,0.846497
0.595158,0.803482,0.712219,0.846412
0.595098,0.80347,0.712148,0.846328
0.595038,0.803457,0.712077,0.846243
0.594979,0.803444,0.712006,0.846158
0.594919,0.803432,0.711934,0.846074
0.59486,0.803419,0.711863,0.845989
0.594801,0.803406,0.711792,0.845905
0.594741,0.803394,0.711721,0.84582
0.594682,0.803381,0.71165,0.845735
0.594622,0.803368,0.711578,0.845651
0.594563,0.803356,0.711507,0.845566
0.594503,0.803343,0.711436,0.845482
0.594444,0.80333,0.711365,0.845397
0.594384,0.803318,0.711294,0.845313
0.594325,0.803305,0.711223,0.845228
0.594265,0.803292,0.711152,0.845144
0.594206,0.80328,0.71108,0.845059
0.594147,0.803267,0.711009,0.844975
0.594087,0.803254,0.710938,0.84489
0.594028,0.803242,0.710867,0.844806
0.593968,0.803229,0.710796,0.844721
0.593909,0.803216,0.710725,0.844637
0.59385,0.803204,0.710654,0.844552
0.59379,0.803191,0.710583,0.844468
0.593731,0.803178,0.710512,0.844383
0.593671,0.803166,0.710441,0.844299
0.593612,0.803153,0.71037,0.844214
0.593553,0.80314,0.731608,0.84413
0.593197,0.803128,0.731534,0.844046
0.592841,0.803115,0.731461,0.843961
0.592485,0.803102,0.731388,0.843877
0.59213,0.80309,0.731315,0.843792
0.591774,0.803077,0.731242,0.843708
0.591419,0.803065,0.731169,0.843624
0.591064,0.803052,0.731096,0.843539
0.59071,0.803039,0.731023,0.843455
0.590355,0.803027,0.730949,0.843371
0.590001,0.803014,0.730876,0.843286
0.589647,0.803001,0.730803,0.843202
0.589294,0.802989,0.73073,0.843118
0.589235,0.802976,0.730657,0.843033
0.589176,0.802963,0.730584,0.842949
0.589117,0.802951,0.730511,0.842865
0.589058,0.802938,0.730438,0.84278
0.588999,0.802925,0.730365,0.842696
0.58894,0.802913,0.730292,0.842612
0.588881,0.8029,0.730219,0.842528
0.588822,0.802887,0.730146,0.842443
0.588763,0.802875,0.730073,0.842359
0.588704,0.802862,0.73,0.842275
0.588646,0.802849,0.729927,0.842191
0.588587,0.802837,0.729854,0.842106
0.588528,0.802824,0.729781,0.842022
0.588469,0.802811,0.729708,0.841938
0.58841,0.802799,0.729635,0.841854
0.588351,0.802786,0.729562,0.84177
0.588293,0.802773,0.729489,0.841685
0.588234,0.802761,0.729416,0.841601
0.588175,0.802748,0.729343,0.841517
0.588116,0.802735,0.72927,0.841433
0.588057,0.802723,0.729197,0.841349
0.587998,0.80271,0.729124,0.841265
0.58794,0.802698,0.729051,0.841181
0.587881,0.802685,0.728978,0.841096
0.587822,0.802672,0.728906,0.841012
0.587763,0.80266,0.728833,0.840928
0.587704,0.802647,0.72876,0.840844
0.587646,0.802634,0.728687,0.84076
0.587587,0.802622,0.728614,0.840676
0.587528,0.802609,0.728541,0.840592
0.587469,0.802596,0.728468,0.840508
0.587411,0.802584,0.728395,0.840424
0.587352,0.802571,0.728323,0.84034
0.587293,0.802558,0.72825,0.840256
0.587234,0.802546,0.728177,0.840172
0.587176,0.802533,0.728104,0.840088
0.587117,0.80252,0.728031,0.840004
0.587058,0.802508,0.727959,0.83992
0.587,0.802495,0.727886,0.839836
0.586941,0.802482,0.727813,0.839752
0.586882,0.80247,0.72774,0.839668
0.586824,0.802457,0.727667,0.839584
0.586765,0.802445,0.727595,0.8395
0.586706,0.802432,0.727522,0.839416
0.586648,0.802419,0.727449,0.839332
0.586589,0.802407,0.727376,0.839248
0.58653,0.802394,0.727304,0.839164
0.586472,0.802381,0.727231,0.83908
0.586413,0.802369,0.727158,0.838996
0.586354,0.802356,0.727085,0.838912
0.586296,0.802343,0.727013,0.838828
0.586237,0.802331,0.72694,0.838745
0.586178,0.802318,0.726867,0.838661
0.58612,0.802305,0.726795,0.838577
0.586061,0.802293,0.726722,0.838493
0.586003,0.80228,0.726649,0.838409
0.585944,0.802267,0.726577,0.838325
0.585885,0.802255,0.726504,0.838241
0.585827,0.802242,0.726431,0.838158
0.585768,0.80223,0.726359,0.838074
0.58571,0.802217,0.726286,0.83799
0.585651,0.802204,0.726213,0.837906
0.585592,0.802192,0.726141,0.837822
0.585534,0.802179,0.726068,0.837739
0.585475,0.802166,0.725996,0.837655
0.585417,0.802154,0.725923,0.837571
0.585358,0.802141,0.72585,0.837487
0.5853,0.802128,0.725778,0.837404
0.585241,0.802116,0.725705,0.83732
0.585183,0.802103,0.725633,0.837236
0.585124,0.80209,0.72556,0.837152
0.585066,0.802078,0.725488,0.837069
0.585007,0.802065,0.725415,0.836985
0.584949,0.802053,0.725342,0.836901
0.58489,0.80204,0.72527,0.836818
0.584832,0.802027,0.725197,0.836734
0.584773,0.802015,0.725125,0.83665
0.584715,0.802002,0.725052,0.836567
0.584656,0.801989,0.72498,0.836483
0.584598,0.801977,0.724907,0.836399
0.584539,0.801964,0.724835,0.836316
0.584481,0.801951,0.724762,0.836232
0.584422,0.801939,0.72469,0.836148
0.584364,0.801926,0.724617,0.836065
0.584306,0.801914,0.724545,0.835981
0.584247,0.801901,0.724473,0.835898
0.584189,0.801888,0.7244,0.835814
0.58413,0.801876,0.724328,0.83573
0.584072,0.801863,0.724255,0.835647
0.584013,0.80185,0.724183,0.835563
0.583955,0.801838,0.72411,0.83548
0.583897,0.801825,0.724038,0.835396
0.583838,0.801812,0.723966,0.835313
0.58378,0.8018,0.723893,0.835229
0.583721,0.801787,0.723821,0.835146
0.583663,0.801774,0.723748,0.835062
0.583605,0.801762,0.723676,0.834979
0.583546,0.801749,0.723604,0.834895
0.583488,0.801737,0.723531,0.834812
0.58343,0.801724,0.723459,0.834728
0.583371,0.801711,0.723387,0.834645
0.583313,0.801699,0.723314,0.834561
0.583255,0.801686,0.723242,0.834478
0.583196,0.801673,0.72317,0.834394
0.583138,0.801661,0.723097,0.834311
0.58308,0.801648,0.723025,0.834227
0.583021,0.801635,0.722953,0.834144
0.582963,0.801623,0.72288,0.83406
0.582905,0.80161,0.722808,0.833977
0.582846,0.801598,0.722736,0.833894
0.582788,0.801585,0.722664,0.83381
0.58273,0.801572,0.722591,0.833727
0.582672,0.80156,0.722519,0.833644
0.582613,0.801547,0.722447,0.83356
0.582555,0.801534,0.722375,0.833477
0.582497,0.801522,0.722302,0.833393
0.582439,0.801509,0.72223,0.83331
0.58238,0.801497,0.722158,0.833227
0.582322,0.801484,0.722086,0.833143
0.582264,0.801471,0.722013,0.83306
0.582206,0.801459,0.721941,0.832977
0.582147,0.801446,0.721869,0.832894
0.582089,0.801433,0.721797,0.83281
0.582031,0.801421,0.721725,0.832727
0.581973,0.801408,0.721652,0.832644
0.581915,0.801395,0.72158,0.83256
0.581856,0.801383,0.721508,0.832477
0.581798,0.80137,0.721436,0.832394
0.58174,0.801358,0.721364,0.832311
0.581682,0.801345,0.721292,0.832227
0.581624,0.801332,0.72122,0.832144
0.581566,0.80132,0.721147,0.832061
0.581507,0.801307,0.721075,0.831978
0.581449,0.801294,0.721003,0.831895
0.581391,0.801282,0.720931,0.831811
0.581333,0.801269,0.720859,0.831728
0.581275,0.801257,0.720787,0.831645
0.581217,0.801244,0.720715,0.831562
0.581159,0.801231,0.720643,0.831479
0.5811,0.801219,0.720571,0.831396
0.581042,0.801206,0.720499,0.831312
0.580984,0.801193,0.720427,0.831229
0.580926,0.801181,0.720355,0.831146
0.580868,0.801168,0.720283,0.831063
0.58081,0.801156,0.720211,0.83098
0.580752,0.801143,0.720139,0.830897
0.580694,0.80113,0.720066,0.830814
0.580636,0.801118,0.719994,0.830731
0.580578,0.801105,0.719922,0.830648
0.58052,0.801092,0.71985,0.830565
0.580462,0.80108,0.719779,0.830482
0.580404,0.801067,0.719707,0.830398
0.580346,0.801055,0.719635,0.830315
0.580287,0.801042,0.719563,0.830232
0.580229,0.801029,0.719491,0.830149
0.580171,0.801017,0.719419,0.830066
0.580113,0.801004,0.719347,0.829983
0.580055,0.800991,0.719275,0.8299
0.579997,0.800979,0.719203,0.829817
0.579939,0.800966,0.719131,0.829734
0.579881,0.800954,0.719059,0.829651
0.579823,0.800941,0.718987,0.829568
0.579765,0.800928,0.718915,0.829486
0.579707,0.800916,0.718843,0.829403
0.579649,0.800903,0.718771,0.82932
0.579592,0.80089,0.7187,0.829237
0.579534,0.800878,0.718628,0.829154
0.579476,0.800865,0.718556,0.829071
0.579418,0.800853,0.718484,0.828988
0.57936,0.80084,0.718412,0.828905
0.579302,0.800827,0.71834,0.828822
0.579244,0.800815,0.718268,0.828739
0.579186,0.800802,0.718197,0.828656
0.579128,0.800789,0.718125,0.828574
0.57907,0.800777,0.718053,0.828491
0.579012,0.800764,0.717981,0.828408
0.578954,0.800752,0.717909,0.828325
0.578896,0.800739,0.717838,0.828242
0.578838,0.800726,0.717766,0.828159
0.578781,0.800714,0.717694,0.828077
0.578723,0.800701,0.717622,0.827994
0.578665,0.800688,0.717551,0.827911
0.578607,0.800676,0.717479,0.827828
0.578549,0.800663,0.717407,0.827745
0.578491,0.800651,0.717335,0.827663
0.578433,0.800638,0.717264,0.82758
0.578376,0.800625,0.717192,0.827497
0.578318,0.800613,0.71712,0.827414
0.57826,0.8006,0.717048,0.827332
0.578202,0.800587,0.716977,0.827249
0.578144,0.800575,0.716905,0.827166
0.578086,0.800562,0.716833,0.827083
0.578029,0.80055,0.716762,0.827001
0.577971,0.800537,0.71669,0.826918
0.577913,0.800524,0.716618,0.826835
0.577855,0.800512,0.716547,0.826753
0.577797,0.800499,0.716475,0.82667
0.57774,0.800487,0.716403,0.826587
0.577682,0.800474,0.716332,0.826505
0.577624,0.800461,0.71626,0.826422
0.577566,0.800449,0.716188,0.826339
0.577509,0.800436,0.716117,0.826257
0.577451,0.800423,0.716045,0.826174
0.577393,0.800411,0.715974,0.826091
0.577335,0.800398,0.715902,0.826009
0.577278,0.800386,0.71583,0.825926
0.57722,0.800373,0.715759,0.825844
0.577162,0.80036,0.715687,0.825761
0.577104,0.800348,0.715616,0.825678
0.577047,0.800335,0.715544,0.825596
0.576989,0.800323,0.715473,0.825513
0.576931,0.80031,0.715401,0.825431
0.576874,0.800297,0.715329,0.825348
0.576816,0.800285,0.715258,0.825266
0.576758,0.800272,0.715186,0.825183
0.576701,0.800259,0.715115,0.825101
0.576643,0.800247,0.715043,0.825018
0.576585,0.800234,0.714972,0.824936
0.576528,0.800222,0.7149,0.824853
0.57647,0.800209,0.714829,0.824771
0.576412,0.800196,0.714757,0.824688
0.576355,0.800184,0.714686,0.824606
0.576297,0.800171,0.714614,0.824523
0.576239,0.800159,0.714543,0.824441
0.576182,0.800146,0.714472,0.824358
0.576124,0.800133,0.7144,0.824276
0.576067,0.800121,0.714329,0.824193
0.576009,0.800108,0.714257,0.824111
0.575951,0.800096,0.714186,0.824029
0.575894,0.800083,0.714114,0.823946
0.575836,0.80007,0.714043,0.823864
0.575779,0.800058,0.713972,0.823781
0.575721,0.800045,0.7139,0.823699
0.575663,0.800032,0.713829,0.823617
0.575606,0.80002,0.713757,0.823534
0.575548,0.800007,0.713686,0.823452
0.575491,0.799995,0.713615,0.82337
