energy,productivity,fun,hunger
0.810405,0.669225,0.884255,0.837834
0.810324,0.669132,0.884167,0.83775
0.809838,0.669038,0.884078,0.837666
0.809352,0.668945,0.88399,0.837582
0.808867,0.668851,0.883901,0.837499
0.808381,0.668758,0.883813,0.837415
0.807896,0.668665,0.883725,0.837331
0.807412,0.668571,0.883636,0.837247
0.806927,0.668478,0.883548,0.837164
0.806443,0.668384,0.88346,0.83708
0.805959,0.668291,0.883371,0.836996
0.805476,0.668197,0.883283,0.836913
0.804993,0.668104,0.883195,0.836829
0.80451,0.668011,0.883106,0.836745
0.804027,0.667917,0.883018,0.836662
0.803545,0.667824,0.88293,0.836578
0.803062,0.667731,0.882841,0.836494
0.802581,0.667637,0.882753,0.836411
0.802099,0.667544,0.882665,0.836327
0.801618,0.667451,0.882576,0.836243
0.801137,0.667358,0.882488,0.83616
0.800656,0.667264,0.8824,0.836076
0.800176,0.667171,0.882312,0.835993
0.799696,0.667078,0.882223,0.835909
0.799216,0.666985,0.882135,0.835825
0.796739,0.667558,0.878519,0.835742
0.794269,0.668133,0.874917,0.835658
0.791807,0.668707,0.87133,0.835575
0.789353,0.669282,0.867758,0.835491
0.786906,0.669858,0.864201,0.835407
0.784467,0.670434,0.860658,0.835324
0.782035,0.671011,0.85713,0.83524
0.779611,0.671588,0.853616,0.835157
0.777195,0.672166,0.850116,0.835073
0.774786,0.672744,0.846631,0.83499
0.772384,0.673323,0.84316,0.834906
0.76999,0.673902,0.839704,0.834823
0.767603,0.674481,0.836261,0.834739
0.765224,0.675061,0.832833,0.834656
0.762852,0.675642,0.829419,0.834572
0.760487,0.676223,0.826018,0.834489
0.75813,0.676805,0.822632,0.834406
0.75578,0.677387,0.81926,0.834322
0.753437,0.67797,0.815901,0.834239
0.751102,0.678553,0.812556,0.834155
0.748774,0.679136,0.809225,0.834072
0.746453,0.679721,0.805907,0.833988
0.744139,0.680305,0.802603,0.833905
0.741832,0.68089,0.799313,0.833822
0.739533,0.681476,0.796036,0.833738
0.73724,0.682062,0.792773,0.833655
0.734955,0.682649,0.789523,0.833572
0.732677,0.683236,0.786286,0.833488
0.730406,0.683824,0.783063,0.833405
0.728142,0.684412,0.779852,0.833321
0.725885,0.685001,0.776655,0.833238
0.723635,0.68559,0.773471,0.833155
0.721392,0.686179,0.7703,0.833072
0.719156,0.68677,0.767142,0.832988
0.716927,0.68736,0.763997,0.832905
0.714704,0.687952,0.760865,0.832822
0.712489,0.688543,0.757746,0.832738
0.71028,0.689136,0.75464,0.832655
0.708079,0.689728,0.751546,0.832572
0.705884,0.690322,0.748465,0.832489
0.703696,0.690915,0.745397,0.832405
0.701515,0.69151,0.742341,0.832322
0.69934,0.692104,0.739297,0.832239
0.697172,0.6927,0.736267,0.832156
0.695011,0.693296,0.733248,0.832072
0.692857,0.693892,0.730242,0.831989
0.690709,0.694489,0.727248,0.831906
0.688569,0.695086,0.724267,0.831823
0.686434,0.695684,0.721298,0.83174
0.684306,0.696282,0.718341,0.831656
0.682185,0.696881,0.715396,0.831573
0.680071,0.697481,0.712463,0.83149
0.677963,0.698081,0.709542,0.831407
0.675861,0.698681,0.706633,0.831324
0.673766,0.699282,0.703736,0.831241
0.671678,0.699883,0.700851,0.831158
0.669596,0.700485,0.697978,0.831074
0.66752,0.701088,0.695117,0.830991
0.665451,0.701691,0.692267,0.830908
0.663388,0.702294,0.689429,0.830825
0.661332,0.702899,0.686603,0.830742
0.659282,0.703503,0.683788,0.830659
0.657239,0.704108,0.680985,0.830576
0.655201,0.704714,0.678193,0.830493
0.65317,0.70532,0.675413,0.83041
0.651146,0.705927,0.672644,0.830327
0.649127,0.706534,0.669886,0.830244
0.647115,0.707142,0.66714,0.830161
0.645109,0.70775,0.664405,0.830078
0.64311,0.708359,0.661681,0.829995
0.641116,0.708968,0.658968,0.829912
0.639129,0.709578,0.656267,0.829829
0.637148,0.710188,0.653576,0.829746
0.635173,0.710799,0.650897,0.829663
0.633204,0.71141,0.648229,0.82958
0.631241,0.712022,0.645571,0.829497
0.629285,0.712635,0.642925,0.829414
0.627334,0.713248,0.640289,0.829331
0.62539,0.713861,0.637664,0.829248
0.623451,0.714475,0.63505,0.829165
0.621519,0.71509,0.632446,0.829082
0.619592,0.715705,0.629853,0.828999
0.617672,0.71632,0.627271,0.828916
0.615757,0.716936,0.6247,0.828833
0.613848,0.717553,0.622139,0.828751
0.611946,0.71817,0.619588,0.828668
0.610049,0.718788,0.617048,0.828585
0.608158,0.719406,0.614519,0.828502
0.606273,0.720025,0.611999,0.828419
0.604393,0.720644,0.60949,0.828336
0.60252,0.721264,0.606992,0.828253
0.600652,0.721884,0.604503,0.828171
0.59879,0.722505,0.602025,0.828088
0.596934,0.723127,0.599557,0.828005
0.595084,0.723749,0.597099,0.827922
0.593239,0.724371,0.594651,0.827839
0.591401,0.724994,0.592213,0.827757
0.589567,0.725618,0.589785,0.827674
0.58774,0.726242,0.587368,0.827591
0.585918,0.726867,0.58496,0.827508
0.584102,0.727492,0.582561,0.827426
0.582291,0.728118,0.580173,0.827343
0.580486,0.728744,0.577795,0.82726
0.578687,0.729371,0.575426,0.827177
0.576893,0.729998,0.573067,0.827095
0.575105,0.730626,0.570718,0.827012
0.573323,0.731255,0.568378,0.826929
0.571545,0.731883,0.566048,0.826847
0.569774,0.732513,0.563727,0.826764
0.568008,0.733143,0.561416,0.826681
0.566247,0.733774,0.559115,0.826598
0.564492,0.734405,0.556822,0.826516
0.562742,0.735036,0.55454,0.826433
0.560998,0.735669,0.552266,0.826351
0.559259,0.736301,0.550002,0.826268
0.557525,0.736935,0.547747,0.826185
0.555797,0.737569,0.545502,0.826103
0.554074,0.738203,0.543266,0.82602
0.552357,0.738838,0.541038,0.825937
0.550645,0.739474,0.53882,0.825855
0.548938,0.74011,0.536611,0.825772
0.547236,0.740746,0.534412,0.82569
0.54554,0.741383,0.532221,0.825607
0.543849,0.742021,0.530039,0.825525
0.542163,0.742659,0.527866,0.825442
0.540483,0.743298,0.525702,0.825359
0.538807,0.743937,0.523547,0.825277
0.537137,0.744577,0.5214,0.825194
0.535472,0.745218,0.519263,0.825112
0.533813,0.745859,0.517134,0.825029
0.532158,0.7465,0.515014,0.824947
0.530508,0.747142,0.512903,0.824864
0.528864,0.747785,0.5108,0.824782
0.528811,0.74768,0.510749,0.824699
0.528758,0.747576,0.510698,0.824617
0.528705,0.747471,0.510647,0.824534
0.528652,0.747367,0.510596,0.824452
0.5286,0.747263,0.510545,0.82437
0.528547,0.747158,0.510493,0.824287
0.528494,0.747054,0.510442,0.824205
0.528441,0.746949,0.510391,0.824122
0.528388,0.746845,0.51034,0.82404
0.528335,0.746741,0.510289,0.823957
0.528282,0.746636,0.510238,0.823875
0.52823,0.746532,0.510187,0.823793
0.528177,0.746428,0.510136,0.82371
0.528124,0.746323,0.510085,0.823628
0.528071,0.746219,0.510034,0.823546
0.528018,0.746115,0.509983,0.823463
0.527966,0.746011,0.509932,0.823381
0.527913,0.745906,0.509881,0.823299
0.52786,0.745802,0.50983,0.823216
0.527807,0.745698,0.509779,0.823134
0.527754,0.745594,0.509728,0.823052
0.527702,0.74549,0.509677,0.822969
0.527649,0.745385,0.509626,0.822887
0.527596,0.745281,0.509575,0.822805
0.527543,0.745177,0.509524,0.822722
0.527491,0.745073,0.509473,0.82264
0.527438,0.744969,0.509423,0.822558
0.527385,0.744865,0.509372,0.822476
0.527332,0.744761,0.509321,0.822393
0.52728,0.744657,0.50927,0.822311
0.527227,0.744553,0.509219,0.822229
0.527174,0.744449,0.509168,0.822147
0.527121,0.744344,0.509117,0.822064
0.527069,0.74424,0.509066,0.821982
0.527016,0.744136,0.509015,0.8219
0.526963,0.744033,0.508964,0.821818
0.526911,0.743929,0.508913,0.821736
0.526858,0.743825,0.508862,0.821654
0.526805,0.743721,0.508812,0.821571
0.526753,0.743617,0.508761,0.821489
0.5267,0.743513,0.50871,0.821407
0.526647,0.743409,0.508659,0.821325
0.526595,0.743305,0.508608,0.821243
0.526542,0.743201,0.508557,0.821161
0.526489,0.743097,0.508506,0.821079
0.526437,0.742994,0.508455,0.820996
0.526384,0.74289,0.508405,0.820914
0.526331,0.742786,0.508354,0.820832
0.526279,0.742682,0.508303,0.82075
0.526226,0.742578,0.508252,0.820668
0.526173,0.742475,0.508201,0.820586
0.526121,0.742371,0.50815,0.820504
0.526068,0.742267,0.5081,0.820422
0.526016,0.742163,0.508049,0.82034
0.525963,0.74206,0.507998,0.820258
0.52591,0.741956,0.507947,0.820176
0.525858,0.741852,0.507896,0.820094
0.525805,0.741749,0.507846,0.820012
0.525753,0.741645,0.507795,0.81993
0.5257,0.741541,0.507744,0.819848
0.525647,0.741438,0.507693,0.819766
0.525595,0.741334,0.507643,0.819684
0.525542,0.741231,0.507592,0.819602
0.52549,0.741127,0.507541,0.81952
0.525437,0.741023,0.50749,0.819438
0.525385,0.74092,0.50744,0.819356
0.525332,0.740816,0.507389,0.819274
0.52528,0.740713,0.507338,0.819192
0.525227,0.740609,0.507287,0.81911
0.525175,0.740506,0.507237,0.819028
0.525122,0.740402,0.507186,0.818946
0.52507,0.740299,0.507135,0.818864
0.525017,0.740196,0.507084,0.818783
0.524965,0.740092,0.507034,0.818701
0.524912,0.739989,0.506983,0.818619
0.52486,0.739885,0.506932,0.818537
0.524807,0.739782,0.506882,0.818455
0.524755,0.739679,0.506831,0.818373
0.524702,0.739575,0.50678,0.818291
0.52465,0.739472,0.50673,0.81821
0.524597,0.739369,0.506679,0.818128
0.524545,0.739265,0.506628,0.818046
0.524492,0.739162,0.506578,0.817964
0.52444,0.739059,0.506527,0.817882
0.524387,0.738955,0.506476,0.817801
0.524335,0.738852,0.506426,0.817719
0.524283,0.738749,0.506375,0.817637
0.52423,0.738646,0.506324,0.817555
0.524178,0.738542,0.506274,0.817474
0.524125,0.738439,0.506223,0.817392
0.524073,0.738336,0.506172,0.81731
0.52402,0.738233,0.506122,0.817228
0.523968,0.73813,0.506071,0.817147
0.523916,0.738027,0.506021,0.817065
0.523863,0.737923,0.50597,0.816983
0.523811,0.73782,0.505919,0.816901
0.523758,0.737717,0.505869,0.81682
0.523706,0.737614,0.505818,0.816738
0.523654,0.737511,0.505768,0.816656
0.523601,0.737408,0.505717,0.816575
0.523549,0.737305,0.505667,0.816493
0.523497,0.737202,0.505616,0.816411
0.523444,0.737099,0.505565,0.81633
0.523392,0.736996,0.505515,0.816248
0.52334,0.736893,0.505464,0.816167
0.523287,0.73679,0.505414,0.816085
0.523235,0.736687,0.505363,0.816003
0.523183,0.736584,0.505313,0.815922
0.52313,0.736481,0.505262,0.81584
0.523078,0.736378,0.505212,0.815759
0.523026,0.736275,0.505161,0.815677
0.522973,0.736173,0.505111,0.815595
0.522921,0.73607,0.50506,0.815514
0.522869,0.735967,0.50501,0.815432
0.522816,0.735864,0.504959,0.815351
0.522764,0.735761,0.504909,0.815269
0.522712,0.735658,0.504858,0.815188
0.52266,0.735556,0.504808,0.815106
0.522607,0.735453,0.504757,0.815025
0.522555,0.73535,0.504707,0.814943
0.522503,0.735247,0.504656,0.814862
0.522451,0.735145,0.504606,0.81478
0.522398,0.735042,0.504555,0.814699
0.522346,0.734939,0.504505,0.814617
0.522294,0.734836,0.504454,0.814536
0.522242,0.734734,0.504404,0.814454
0.522189,0.734631,0.504353,0.814373
0.522137,0.734528,0.504303,0.814291
0.522085,0.734426,0.504253,0.81421
0.522033,0.734323,0.504202,0.814129
0.521981,0.734221,0.504152,0.814047
0.521928,0.734118,0.504101,0.813966
0.521876,0.734015,0.504051,0.813884
0.521824,0.733913,0.504,0.813803
0.521772,0.73381,0.50395,0.813722
0.52172,0.733708,0.5039,0.81364
0.521668,0.733605,0.503849,0.813559
0.521615,0.733503,0.503799,0.813478
0.521563,0.7334,0.503749,0.813396
0.521511,0.733298,0.503698,0.813315
0.521459,0.733195,0.503648,0.813233
0.521407,0.733093,0.503597,0.813152
0.521355,0.73299,0.503547,0.813071
0.521302,0.732888,0.503497,0.81299
0.52125,0.732786,0.503446,0.812908
0.521198,0.732683,0.503396,0.812827
0.521146,0.732581,0.503346,0.812746
0.521094,0.732478,0.503295,0.812664
0.521042,0.732376,0.503245,0.812583
0.52099,0.732274,0.503195,0.812502
0.520938,0.732171,0.503144,0.812421
0.520886,0.732069,0.503094,0.812339
0.520833,0.731967,0.503044,0.812258
0.520781,0.731865,0.502993,0.812177
0.520729,0.731762,0.502943,0.812096
0.520677,0.73166,0.502893,0.812014
0.520625,0.731558,0.502843,0.811933
0.520573,0.731456,0.502792,0.811852
0.520521,0.731353,0.502742,0.811771
0.520469,0.731251,0.502692,0.81169
0.520417,0.731149,0.502641,0.811609
0.520365,0.731047,0.502591,0.811527
0.520313,0.730945,0.502541,0.811446
0.520261,0.730843,0.502491,0.811365
0.520209,0.73074,0.50244,0.811284
0.520157,0.730638,0.50239,0.811203
0.520105,0.730536,0.50234,0.811122
0.520053,0.730434,0.50229,0.811041
0.520001,0.730332,0.502239,0.81096
0.519949,0.73023,0.502189,0.810878
0.519897,0.730128,0.502139,0.810797
0.519845,0.730026,0.502089,0.810716
0.519793,0.729924,0.502039,0.810635
0.519741,0.729822,0.501988,0.810554
0.519689,0.72972,0.501938,0.810473
0.519637,0.729618,0.501888,0.810392
0.519585,0.729516,0.501838,0.810311
0.519533,0.729414,0.501788,0.81023
0.519481,0.729312,0.501737,0.810149
0.519429,0.72921,0.501687,0.810068
0.519377,0.729108,0.501637,0.809987
0.519325,0.729007,0.501587,0.809906
0.519273,0.728905,0.501537,0.809825
0.519221,0.728803,0.501487,0.809744
0.519169,0.728701,0.501436,0.809663
0.519117,0.728599,0.501386,0.809582
0.519066,0.728497,0.501336,0.809501
0.519014,0.728396,0.501286,0.80942
0.518962,0.728294,0.501236,0.809339
0.51891,0.728192,0.501186,0.809258
0.518858,0.72809,0.501136,0.809177
0.518806,0.727989,0.501086,0.809096
0.518754,0.727887,0.501035,0.809015
0.518702,0.727785,0.500985,0.808935
0.51865,0.727683,0.500935,0.808854
0.518599,0.727582,0.500885,0.808773
0.518547,0.72748,0.500835,0.808692
0.518495,0.727378,0.500785,0.808611
0.518443,0.727277,0.500735,0.80853
0.518391,0.727175,0.500685,0.808449
0.518339,0.727074,0.500635,0.808368
0.518287,0.726972,0.500585,0.808288
0.518236,0.72687,0.500535,0.808207
0.518184,0.726769,0.500485,0.808126
0.518132,0.726667,0.500435,0.808045
0.51808,0.726566,0.500385,0.807964
0.518028,0.726464,0.500334,0.807884
0.517977,0.726363,0.500284,0.807803
0.517925,0.726261,0.500234,0.807722
0.517873,0.72616,0.500184,0.807641
0.517821,0.726058,0.500134,0.80756
0.517769,0.725957,0.500084,0.80748
0.517718,0.725855,0.500034,0.807399
0.517666,0.725754,0.499984,0.807318
0.517614,0.725653,0.499934,0.807237
0.517562,0.725551,0.499884,0.807157
0.517511,0.72545,0.499834,0.807076
0.517459,0.725348,0.499784,0.806995
0.517407,0.725247,0.499734,0.806915
0.517355,0.725146,0.499684,0.806834
0.517304,0.725044,0.499634,0.806753
0.517252,0.724943,0.499585,0.806673
0.5172,0.724842,0.499535,0.806592
0.517148,0.724741,0.499485,0.806511
0.517097,0.724639,0.499435,0.806431
0.517045,0.724538,0.499385,0.80635
0.516993,0.724437,0.499335,0.806269
0.516942,0.724336,0.499285,0.806189
0.51689,0.724234,0.499235,0.806108
0.516838,0.724133,0.499185,0.806027
0.516787,0.724032,0.499135,0.805947
0.516735,0.723931,0.499085,0.805866
0.516683,0.72383,0.499035,0.805786
0.516632,0.723728,0.498985,0.805705
0.51658,0.723627,0.498935,0.805625
0.516528,0.723526,0.498886,0.805544
0.516477,0.723425,0.498836,0.805463
0.516425,0.723324,0.498786,0.805383
0.516373,0.723223,0.498736,0.805302
0.516322,0.723122,0.498686,0.805222
0.51627,0.723021,0.498636,0.805141
0.516218,0.72292,0.498586,0.805061
0.516167,0.722819,0.498536,0.80498
0.516115,0.722718,0.498487,0.8049
0.516064,0.722617,0.498437,0.804819
0.516012,0.722516,0.498387,0.804739
0.51596,0.722415,0.498337,0.804658
0.515909,0.722314,0.498287,0.804578
0.515857,0.722213,0.498237,0.804497
0.515806,0.722112,0.498188,0.804417
0.515754,0.722011,0.498138,0.804337
0.515702,0.72191,0.498088,0.804256
0.515651,0.72181,0.498038,0.804176
0.515599,0.721709,0.497988,0.804095
0.515548,0.721608,0.497939,0.804015
0.515496,0.721507,0.497889,0.803934
0.515445,0.721406,0.497839,0.803854
0.515393,0.721305,0.497789,0.803774
0.515342,0.721205,0.497739,0.803693
0.51529,0.721104,0.49769,0.803613
0.515238,0.721003,0.49764,0.803533
0.515187,0.720902,0.49759,0.803452
0.515135,0.720802,0.49754,0.803372
0.515084,0.720701,0.497491,0.803291
0.515032,0.7206,0.497441,0.803211
0.514981,0.720499,0.497391,0.803131
0.514929,0.720399,0.497341,0.803051
0.514878,0.720298,0.497292,0.80297
0.514826,0.720197,0.497242,0.80289
0.514775,0.720097,0.497192,0.80281
0.514723,0.719996,0.497142,0.802729
0.514672,0.719896,0.497093,0.802649
0.514621,0.719795,0.497043,0.802569
0.514569,0.719694,0.496993,0.802489
0.514518,0.719594,0.496944,0.802408
0.514466,0.719493,0.496894,0.802328
0.514415,0.719393,0.496844,0.802248
0.514363,0.719292,0.496795,0.802168
0.514312,0.719192,0.496745,0.802087
0.51426,0.719091,0.496695,0.802007
0.514209,0.718991,0.496645,0.801927
0.514158,0.71889,0.496596,0.801847
0.514106,0.71879,0.496546,0.801767
0.514055,0.718689,0.496497,0.801686
0.514003,0.718589,0.496447,0.801606
0.513952,0.718489,0.496397,0.801526
0.513901,0.718388,0.496348,0.801446
0.513849,0.718288,0.496298,0.801366
0.513798,0.718187,0.496248,0.801286
0.513746,0.718087,0.496199,0.801206
0.513695,0.717987,0.496149,0.801125
0.513644,0.717886,0.496099,0.801045
0.513592,0.717786,0.49605,0.800965
0.513541,0.717686,0.496,0.800885
0.51349,0.717586,0.495951,0.800805
0.513438,0.717485,0.495901,0.800725
0.513387,0.717385,0.495851,0.800645
0.513335,0.717285,0.495802,0.800565
0.513284,0.717185,0.495752,0.800485
0.513233,0.717084,0.495703,0.800405
0.513182,0.716984,0.495653,0.800325
0.51313,0.716884,0.495604,0.800245
0.513079,0.716784,0.495554,0.800165
0.513028,0.716684,0.495504,0.800085
0.512976,0.716584,0.495455,0.800005
0.512925,0.716483,0.495405,0.799925
0.512874,0.716383,0.495356,0.799845
0.512822,0.716283,0.495306,0.799765
0.512771,0.716183,0.495257,0.799685
0.51272,0.716083,0.495207,0.799605
0.512669,0.715983,0.495158,0.799525
0.512617,0.715883,0.495108,0.799445
0.512566,0.715783,0.495059,0.799365
0.512515,0.715683,0.495009,0.799285
0.512464,0.715583,0.49496,0.799205
0.512412,0.715483,0.49491,0.799125
0.512361,0.715383,0.494861,0.799045
0.51231,0.715283,0.494811,0.798965
0.512259,0.715183,0.494762,0.798885
0.512207,0.715083,0.494712,0.798805
0.512156,0.714983,0.494663,0.798726
0.512105,0.714883,0.494613,0.798646
0.512054,0.714783,0.494564,0.798566
0.512002,0.714683,0.494514,0.798486
0.511951,0.714584,0.494465,0.798406
0.5119,0.714484,0.494415,0.798326
0.511849,0.714384,0.494366,0.798246
0.511798,0.714284,0.494317,0.798167
0.511747,0.714184,0.494267,0.798087
0.511695,0.714085,0.494218,0.798007
0.511644,0.713985,0.494168,0.797927
0.511593,0.713885,0.494119,0.797847
0.511542,0.713785,0.49407,0.797768
0.511491,0.713685,0.49402,0.797688
0.51144,0.713586,0.493971,0.797608
0.511388,0.713486,0.493921,0.797528
0.511337,0.713386,0.493872,0.797449
0.511286,0.713287,0.493823,0.797369
0.511235,0.713187,0.493773,0.797289
0.511184,0.713087,0.493724,0.797209
0.511133,0.712988,0.493674,0.79713
0.511082,0.712888,0.493625,0.79705
0.511031,0.712788,0.493576,0.79697
0.510979,0.712689,0.493526,0.79689
0.510673,0.712589,0.493477,0.796811
0.510367,0.71249,0.493428,0.796731
0.51006,0.71239,0.493378,0.796651
0.509754,0.712291,0.493329,0.796572
0.509448,0.712191,0.49328,0.796492
0.509143,0.712092,0.49323,0.796412
0.508837,0.711992,0.493181,0.796333
0.508532,0.711893,0.493132,0.796253
0.508227,0.711793,0.493082,0.796174
0.507922,0.711694,0.493033,0.796094
0.506348,0.712306,0.491012,0.796014
0.504778,0.712919,0.488999,0.795935
0.503214,0.713532,0.486994,0.795855
0.501654,0.714145,0.484998,0.795776
0.500099,0.71476,0.483009,0.795696
0.498549,0.715374,0.481029,0.795616
0.497003,0.71599,0.479057,0.795537
0.495463,0.716606,0.477093,0.795457
0.493927,0.717222,0.475137,0.795378
0.492396,0.717839,0.473189,0.795298
0.49087,0.718456,0.47125,0.795219
0.489348,0.719074,0.469318,0.795139
0.487831,0.719693,0.467394,0.79506
0.486319,0.720312,0.465477,0.79498
0.484812,0.720931,0.463569,0.794901
0.483309,0.721552,0.461669,0.794821
0.481811,0.722172,0.459776,0.794742
0.480317,0.722793,0.457891,0.794662
0.478828,0.723415,0.456014,0.794583
0.477344,0.724037,0.454145,0.794503
0.475865,0.72466,0.452283,0.794424
0.47439,0.725283,0.450429,0.794344
0.472919,0.725907,0.448582,0.794265
0.471453,0.726532,0.446743,0.794186
0.469992,0.727156,0.444912,0.794106
0.468535,0.727782,0.443088,0.794027
0.467083,0.728408,0.441271,0.793947
0.465635,0.729034,0.439462,0.793868
0.464192,0.729661,0.43766,0.793789
0.462753,0.730289,0.435866,0.793709
0.461318,0.730917,0.434079,0.79363
0.459888,0.731546,0.4323,0.79355
0.458463,0.732175,0.430528,0.793471
0.457042,0.732805,0.428763,0.793392
0.455625,0.733435,0.427005,0.793312
0.454213,0.734066,0.425254,0.793233
0.452805,0.734697,0.423511,0.793154
0.451401,0.735329,0.421775,0.793074
0.450002,0.735962,0.420046,0.792995
0.448607,0.736595,0.418323,0.792916
0.447217,0.737228,0.416609,0.792836
0.44583,0.737863,0.414901,0.792757
0.444448,0.738497,0.4132,0.792678
0.443071,0.739132,0.411506,0.792599
0.441697,0.739768,0.409819,0.792519
0.440328,0.740404,0.408139,0.79244
0.438963,0.741041,0.406465,0.792361
0.437603,0.741679,0.404799,0.792282
0.436246,0.742317,0.40314,0.792202
