energy,productivity,fun,hunger
0.625139,0.674528,0.897401,0.525581
0.625077,0.674452,0.924231,0.525529
0.624702,0.674377,0.924138,0.525476
0.624327,0.674301,0.924046,0.525424
0.623952,0.674225,0.923954,0.525371
0.623578,0.674149,0.923861,0.525319
0.623204,0.674073,0.923769,0.525266
0.62283,0.673997,0.923676,0.525213
0.622456,0.673922,0.923584,0.525161
0.622083,0.673846,0.923492,0.525108
0.62171,0.67377,0.923399,0.525056
0.621337,0.673694,0.923307,0.525003
0.620964,0.673618,0.923215,0.524951
0.620591,0.673543,0.923122,0.524898
0.620219,0.673467,0.92303,0.524846
0.619847,0.673391,0.922938,0.524793
0.619475,0.673315,0.922845,0.524741
0.619104,0.67324,0.922753,0.524688
0.618732,0.673164,0.922661,0.524636
0.618361,0.673088,0.922569,0.524584
0.61799,0.673013,0.922476,0.524531
0.617619,0.672937,0.922384,0.524479
0.617249,0.672861,0.922292,0.524426
0.616878,0.672786,0.9222,0.524374
0.616508,0.67271,0.922107,0.524321
0.616138,0.672634,0.922015,0.524269
0.615769,0.672559,0.921923,0.524216
0.615399,0.672483,0.921831,0.524164
0.61503,0.672407,0.921739,0.524112
0.614661,0.672332,0.921647,0.524059
0.614292,0.672256,0.921554,0.524007
0.613924,0.672181,0.921462,0.523954
0.613555,0.672105,0.92137,0.523902
0.613187,0.672029,0.921278,0.52385
0.613126,0.671954,0.921186,0.523797
0.613065,0.671878,0.948726,0.523745
0.612697,0.671803,0.948632,0.523692
0.612329,0.671727,0.948537,0.52364
0.611962,0.671652,0.948442,0.523588
0.611595,0.671576,0.948347,0.523535
0.611228,0.6715,0.948252,0.523483
0.610861,0.671425,0.948157,0.523431
0.610495,0.671349,0.948063,0.523378
0.610128,0.671274,0.947968,0.523326
0.609762,0.671198,0.947873,0.523274
0.609396,0.671123,0.947778,0.523221
0.609031,0.671047,0.947683,0.523169
0.608665,0.670972,0.947589,0.523117
0.6083,0.670897,0.947494,0.523064
0.607935,0.670821,0.947399,0.523012
0.607571,0.670746,0.947304,0.52296
0.607206,0.67067,0.94721,0.522907
0.606842,0.670595,0.947115,0.522855
0.606478,0.670519,0.94702,0.522803
0.606114,0.670444,0.946926,0.522751
0.60575,0.670369,0.946831,0.522698
0.605387,0.670293,0.946736,0.522646
0.605024,0.670218,0.946641,0.522594
0.604661,0.670142,0.946547,0.522542
0.604298,0.670067,0.946452,0.522489
0.603935,0.669992,0.946358,0.522437
0.603875,0.669916,0.946263,0.522385
0.603815,0.669841,0.974553,0.522333
0.603452,0.669766,0.974456,0.52228
0.60309,0.66969,0.974358,0.522228
0.602728,0.669615,0.974261,0.522176
0.602367,0.66954,0.974164,0.522124
0.602005,0.669464,0.974066,0.522071
0.601644,0.669389,0.973969,0.522019
0.601283,0.669314,0.973871,0.521967
0.600923,0.669239,0.973774,0.521915
0.600562,0.669163,0.973677,0.521863
0.600202,0.669088,0.973579,0.52181
0.599842,0.669013,0.973482,0.521758
0.599482,0.668938,0.973384,0.521706
0.599122,0.668862,0.973287,0.521654
0.598763,0.668787,0.97319,0.521602
0.598403,0.668712,0.973092,0.52155
0.598044,0.668637,0.972995,0.521497
0.597686,0.668562,0.972898,0.521445
0.597327,0.668486,0.972801,0.521393
0.596969,0.668411,0.972703,0.521341
0.596611,0.668336,0.972606,0.521289
0.596253,0.668261,0.972509,0.521237
0.595895,0.668186,0.972412,0.521185
0.595537,0.668111,0.972314,0.521133
0.59518,0.668035,0.972217,0.52108
0.594823,0.66796,0.97212,0.521028
0.594466,0.667885,0.972023,0.520976
0.594109,0.66781,0.971925,0.520924
0.59405,0.667735,0.971828,0.520872
0.593991,0.66766,1,0.52082
0.593634,0.667585,0.9999,0.520768
0.593278,0.66751,0.9998,0.520716
0.592922,0.667435,0.9997,0.520664
0.592566,0.66736,0.9996,0.520612
0.592211,0.667284,0.9995,0.52056
0.591856,0.667209,0.9994,0.520508
0.591501,0.667134,0.9993,0.520455
0.591146,0.667059,0.9992,0.520403
0.590791,0.666984,0.9991,0.520351
0.590437,0.666909,0.999,0.520299
0.590082,0.666834,0.998901,0.520247
0.589728,0.666759,0.998801,0.520195
0.589375,0.666684,0.998701,0.520143
0.589021,0.666609,0.998601,0.520091
0.588668,0.666534,0.998501,0.520039
0.588314,0.666459,0.998401,0.519987
0.587961,0.666384,0.998301,0.519935
0.587903,0.66631,0.998202,0.519883
0.587844,0.666235,1,0.519831
0.587491,0.66616,0.9999,0.519779
0.587139,0.666085,0.9998,0.519727
0.586786,0.66601,0.9997,0.519675
0.586434,0.665935,0.9996,0.519623
0.586083,0.66586,0.9995,0.519571
0.585731,0.665785,0.9994,0.519519
0.58538,0.66571,0.9993,0.519467
0.585028,0.665635,0.9992,0.519416
0.584677,0.665561,0.9991,0.519364
0.584327,0.665486,0.999,0.519312
0.583976,0.665411,0.998901,0.51926
0.583626,0.665336,0.998801,0.519208
0.583276,0.665261,0.998701,0.519156
0.582926,0.665186,0.998601,0.519104
0.582576,0.665112,0.998501,0.519052
0.582226,0.665037,0.998401,0.519
0.581877,0.664962,0.998301,0.518948
0.581528,0.664887,0.998202,0.518896
0.581179,0.664812,0.998102,0.518844
0.58083,0.664738,0.998002,0.518793
0.580482,0.664663,0.997902,0.518741
0.580134,0.664588,0.997802,0.518689
0.579786,0.664513,0.997703,0.518637
0.579438,0.664439,0.997603,0.518585
0.57909,0.664364,0.997503,0.518533
0.578743,0.664289,0.997403,0.518481
0.578395,0.664215,0.997304,0.51843
0.578338,0.66414,0.997204,0.518378
0.57828,0.664065,1,0.518326
0.577933,0.66399,0.9999,0.518274
0.577586,0.663916,0.9998,0.518222
0.57724,0.663841,0.9997,0.51817
0.576893,0.663766,0.9996,0.518119
0.576547,0.663692,0.9995,0.518067
0.576201,0.663617,0.9994,0.518015
0.575856,0.663543,0.9993,0.517963
0.57551,0.663468,0.9992,0.517911
0.575165,0.663393,0.9991,0.51786
0.57482,0.663319,0.999,0.517808
0.574475,0.663244,0.998901,0.517756
0.57413,0.66317,0.998801,0.517704
0.573786,0.663095,0.998701,0.517652
0.573442,0.66302,0.998601,0.517601
0.573098,0.662946,0.998501,0.517549
0.572754,0.662871,0.998401,0.517497
0.57241,0.662797,0.998301,0.517445
0.572067,0.662722,0.998202,0.517394
0.571723,0.662648,0.998102,0.517342
0.57138,0.662573,0.998002,0.51729
0.571038,0.662499,0.997902,0.517238
0.570695,0.662424,0.997802,0.517187
0.570353,0.66235,0.997703,0.517135
0.57001,0.662275,0.997603,0.517083
0.569669,0.662201,0.997503,0.517032
0.569327,0.662126,0.997403,0.51698
0.568985,0.662052,0.997304,0.516928
0.568644,0.661977,0.997204,0.516877
0.568303,0.661903,0.997104,0.516825
0.567962,0.661828,0.997004,0.516773
0.567621,0.661754,0.996905,0.516721
0.56728,0.661679,0.996805,0.51667
0.56694,0.661605,0.996705,0.516618
0.5666,0.661531,0.996606,0.516566
0.56626,0.661456,0.996506,0.516515
0.56592,0.661382,0.996406,0.516463
0.565581,0.661307,0.996307,0.516412
0.565241,0.661233,0.996207,0.51636
0.564902,0.661159,0.996107,0.516308
0.564563,0.661084,0.996008,0.516257
0.564225,0.66101,0.995908,0.516205
0.563886,0.660936,0.995809,0.516153
0.563548,0.660861,0.995709,0.516102
0.56321,0.660787,0.995609,0.51605
0.562872,0.660713,0.99551,0.515999
0.562534,0.660638,0.99541,0.515947
0.562197,0.660564,0.995311,0.515895
0.561859,0.66049,0.995211,0.515844
0.561522,0.660416,0.995112,0.515792
0.561185,0.660341,0.995012,0.515741
0.561129,0.660267,0.994913,0.515689
0.561073,0.660193,1,0.515637
0.560737,0.660119,0.9999,0.515586
0.5604,0.660044,0.9998,0.515534
0.560064,0.65997,0.9997,0.515483
0.559728,0.659896,0.9996,0.515431
0.559392,0.659822,0.9995,0.51538
0.559057,0.659747,0.9994,0.515328
0.558721,0.659673,0.9993,0.515277
0.558386,0.659599,0.9992,0.515225
0.558051,0.659525,0.9991,0.515174
0.557716,0.659451,0.999,0.515122
0.557381,0.659377,0.998901,0.515071
0.557047,0.659302,0.998801,0.515019
0.556713,0.659228,0.998701,0.514968
0.556379,0.659154,0.998601,0.514916
0.556045,0.65908,0.998501,0.514865
0.555989,0.659006,0.998401,0.514813
0.555934,0.658932,1,0.514762
0.5556,0.658858,0.9999,0.51471
0.555267,0.658784,0.9998,0.514659
0.554934,0.658709,0.9997,0.514607
0.554601,0.658635,0.9996,0.514556
0.554268,0.658561,0.9995,0.514504
0.553936,0.658487,0.9994,0.514453
0.553603,0.658413,0.9993,0.514401
0.553271,0.658339,0.9992,0.51435
0.552939,0.658265,0.9991,0.514298
0.552608,0.658191,0.999,0.514247
0.552276,0.658117,0.998901,0.514196
0.551945,0.658043,0.998801,0.514144
0.551614,0.657969,0.998701,0.514093
0.551283,0.657895,0.998601,0.514041
0.550952,0.657821,0.998501,0.51399
0.550621,0.657747,0.998401,0.513939
0.550291,0.657673,0.998301,0.513887
0.549961,0.657599,0.998202,0.513836
0.549631,0.657525,0.998102,0.513784
0.549301,0.657451,0.998002,0.513733
0.548972,0.657377,0.997902,0.513682
0.548642,0.657303,0.997802,0.51363
0.548313,0.657229,0.997703,0.513579
0.547984,0.657155,0.997603,0.513528
0.547655,0.657082,0.997503,0.513476
0.547327,0.657008,0.997403,0.513425
0.546998,0.656934,0.997304,0.513373
0.54667,0.65686,0.997204,0.513322
0.546342,0.656786,0.997104,0.513271
0.546014,0.656712,0.997004,0.51322
0.545687,0.656638,0.996905,0.513168
0.54536,0.656564,0.996805,0.513117
0.545032,0.656491,0.996705,0.513066
0.544705,0.656417,0.996606,0.513014
0.544379,0.656343,0.996506,0.512963
0.544052,0.656269,0.996406,0.512912
0.543726,0.656195,0.996307,0.51286
0.543399,0.656122,0.996207,0.512809
0.543073,0.656048,0.996107,0.512758
0.542747,0.655974,0.996008,0.512707
0.542422,0.6559,0.995908,0.512655
0.542096,0.655826,0.995809,0.512604
0.541771,0.655753,0.995709,0.512553
0.541446,0.655679,0.995609,0.512501
0.541121,0.655605,0.99551,0.51245
0.540797,0.655531,0.99541,0.512399
0.540472,0.655458,0.995311,0.512348
0.540148,0.655384,0.995211,0.512296
0.539824,0.65531,0.995112,0.512245
0.5395,0.655237,0.995012,0.512194
0.539176,0.655163,0.994913,0.512143
0.538853,0.655089,0.994813,0.512092
0.53853,0.655016,0.994714,0.51204
0.538207,0.654942,0.994614,0.511989
0.537884,0.654868,0.994515,0.511938
0.537561,0.654795,0.994415,0.511887
0.537238,0.654721,0.994316,0.511836
0.536916,0.654647,0.994216,0.511784
0.536594,0.654574,0.994117,0.511733
0.536272,0.6545,0.994018,0.511682
0.53595,0.654427,0.993918,0.511631
0.535629,0.654353,0.993819,0.51158
0.535575,0.654279,0.993719,0.511529
0.535522,0.654206,1,0.511477
0.5352,0.654132,0.9999,0.511426
0.534879,0.654059,0.9998,0.511375
0.534558,0.653985,0.9997,0.511324
0.534238,0.653911,0.9996,0.511273
0.533917,0.653838,0.9995,0.511222
0.533597,0.653764,0.9994,0.511171
0.533277,0.653691,0.9993,0.51112
0.532957,0.653617,0.9992,0.511068
0.532637,0.653544,0.9991,0.511017
0.532317,0.65347,0.999,0.510966
0.531998,0.653397,0.998901,0.510915
0.531679,0.653323,0.998801,0.510864
0.53136,0.65325,0.998701,0.510813
0.531041,0.653176,0.998601,0.510762
0.530723,0.653103,0.998501,0.510711
0.530404,0.65303,0.998401,0.51066
0.530086,0.652956,0.998301,0.510609
0.529768,0.652883,0.998202,0.510558
0.52945,0.652809,0.998102,0.510506
0.529132,0.652736,0.998002,0.510455
0.528815,0.652662,0.997902,0.510404
0.528498,0.652589,0.997802,0.510353
0.528181,0.652516,0.997703,0.510302
0.527864,0.652442,0.997603,0.510251
0.527547,0.652369,0.997503,0.5102
0.527231,0.652295,0.997403,0.510149
0.526914,0.652222,0.997304,0.510098
0.526598,0.652149,0.997204,0.510047
0.526282,0.652075,0.997104,0.509996
0.525966,0.652002,0.997004,0.509945
0.525651,0.651929,0.996905,0.509894
0.525336,0.651855,0.996805,0.509843
0.52502,0.651782,0.996705,0.509792
0.524705,0.651709,0.996606,0.509741
0.524391,0.651636,0.996506,0.50969
0.524076,0.651562,0.996406,0.509639
0.523762,0.651489,0.996307,0.509588
0.523447,0.651416,0.996207,0.509537
0.523133,0.651342,0.996107,0.509486
0.522819,0.651269,0.996008,0.509436
0.522506,0.651196,0.995908,0.509385
0.522192,0.651123,0.995809,0.509334
0.521879,0.65105,0.995709,0.509283
0.521566,0.650976,0.995609,0.509232
0.521253,0.650903,0.99551,0.509181
0.52094,0.65083,0.99541,0.50913
0.520628,0.650757,0.995311,0.509079
0.520315,0.650684,0.995211,0.509028
0.520003,0.65061,0.995112,0.508977
0.519691,0.650537,0.995012,0.508926
0.519379,0.650464,0.994913,0.508875
0.519068,0.650391,0.994813,0.508825
0.518756,0.650318,0.994714,0.508774
0.518445,0.650245,0.994614,0.508723
0.518134,0.650171,0.994515,0.508672
0.517823,0.650098,0.994415,0.508621
0.517513,0.650025,0.994316,0.50857
0.517202,0.649952,0.994216,0.508519
0.516892,0.649879,0.994117,0.508468
0.516582,0.649806,0.994018,0.508418
0.51653,0.649733,0.993918,0.508367
0.516478,0.64966,1,0.508316
0.516169,0.649587,0.9999,0.508265
0.515859,0.649514,0.9998,0.508214
0.515549,0.649441,0.9997,0.508163
0.51524,0.649368,0.9996,0.508113
0.514931,0.649295,0.9995,0.508062
0.514622,0.649222,0.9994,0.508011
0.514313,0.649148,0.9993,0.50796
0.514005,0.649075,0.9992,0.507909
0.513696,0.649002,0.9991,0.507859
0.513388,0.64893,0.999,0.507808
0.51308,0.648857,0.998901,0.507757
0.512772,0.648784,0.998801,0.507706
0.512465,0.648711,0.998701,0.507656
0.512157,0.648638,0.998601,0.507605
0.51185,0.648565,0.998501,0.507554
0.511543,0.648492,0.998401,0.507503
0.511236,0.648419,0.998301,0.507452
0.510929,0.648346,0.998202,0.507402
0.510623,0.648273,0.998102,0.507351
0.510316,0.6482,0.998002,0.5073
0.51001,0.648127,0.997902,0.50725
0.509704,0.648054,0.997802,0.507199
0.509398,0.647981,0.997703,0.507148
0.509093,0.647909,0.997603,0.507097
0.508787,0.647836,0.997503,0.507047
0.508737,0.647763,0.997403,0.506996
0.508686,0.64769,1,0.506945
0.50838,0.647617,0.9999,0.506895
0.508075,0.647544,0.9998,0.506844
0.507771,0.647471,0.9997,0.506793
0.507466,0.647399,0.9996,0.506743
0.507162,0.647326,0.9995,0.506692
0.506857,0.647253,0.9994,0.506641
0.506553,0.64718,0.9993,0.50659
0.506249,0.647107,0.9992,0.50654
0.505946,0.647035,0.9991,0.506489
0.505642,0.646962,0.999,0.506439
0.505339,0.646889,0.998901,0.506388
0.505035,0.646816,0.998801,0.506337
0.504732,0.646744,0.998701,0.506287
0.50443,0.646671,0.998601,0.506236
0.504127,0.646598,0.998501,0.506185
0.503825,0.646525,0.998401,0.506135
0.503774,0.646453,0.998301,0.506084
0.503724,0.64638,1,0.506034
0.503422,0.646307,0.9999,0.505983
0.50312,0.646235,0.9998,0.505932
0.502818,0.646162,0.9997,0.505882
0.502516,0.646089,0.9996,0.505831
0.502215,0.646017,0.9995,0.505781
0.501913,0.645944,0.9994,0.50573
0.501612,0.645871,0.9993,0.505679
0.501311,0.645799,0.9992,0.505629
0.50101,0.645726,0.9991,0.505578
0.50071,0.645653,0.999,0.505528
0.500409,0.645581,0.998901,0.505477
0.500109,0.645508,0.998801,0.505427
0.499809,0.645436,0.998701,0.505376
0.499509,0.645363,0.998601,0.505326
0.49921,0.645291,0.998501,0.505275
0.49891,0.645218,0.998401,0.505224
0.498611,0.645145,0.998301,0.505174
0.498312,0.645073,0.998202,0.505123
0.498013,0.645,0.998102,0.505073
0.497714,0.644928,0.998002,0.505022
0.497415,0.644855,0.997902,0.504972
0.497117,0.644783,0.997802,0.504921
0.496819,0.64471,0.997703,0.504871
0.496521,0.644638,0.997603,0.50482
0.496223,0.644565,0.997503,0.50477
0.495925,0.644493,0.997403,0.504719
0.495628,0.64442,0.997304,0.504669
0.49533,0.644348,0.997204,0.504619
0.495033,0.644275,0.997104,0.504568
0.494736,0.644203,0.997004,0.504518
0.494439,0.64413,0.996905,0.504467
0.494143,0.644058,0.996805,0.504417
0.493846,0.643985,0.996705,0.504366
0.49355,0.643913,0.996606,0.504316
0.493254,0.643841,0.996506,0.504265
0.492958,0.643768,0.996406,0.504215
0.492662,0.643696,0.996307,0.504165
0.492613,0.643623,0.996207,0.504114
0.492563,0.643551,1,0.504064
0.492268,0.643479,0.9999,0.504013
0.491973,0.643406,0.9998,0.503963
0.491677,0.643334,0.9997,0.503913
0.491382,0.643262,0.9996,0.503862
0.491088,0.643189,0.9995,0.503812
0.490793,0.643117,0.9994,0.503761
0.490499,0.643045,0.9993,0.503711
0.490204,0.642972,0.9992,0.503661
0.48991,0.6429,0.9991,0.50361
0.489616,0.642828,0.999,0.50356
0.489323,0.642755,0.998901,0.50351
0.489029,0.642683,0.998801,0.503459
0.488736,0.642611,0.998701,0.503409
0.488442,0.642539,0.998601,0.503359
0.488149,0.642466,0.998501,0.503308
0.487856,0.642394,0.998401,0.503258
0.487564,0.642322,0.998301,0.503208
0.487271,0.64225,0.998202,0.503157
0.486979,0.642177,0.998102,0.503107
0.486687,0.642105,0.998002,0.503057
0.486395,0.642033,0.997902,0.503006
0.486103,0.641961,0.997802,0.502956
0.485811,0.641888,0.997703,0.502906
0.48552,0.641816,0.997603,0.502855
0.485229,0.641744,0.997503,0.502805
0.484937,0.641672,0.997403,0.502755
0.484647,0.6416,0.997304,0.502705
0.484356,0.641528,0.997204,0.502654
0.484065,0.641455,0.997104,0.502604
0.483775,0.641383,0.997004,0.502554
0.483485,0.641311,0.996905,0.502503
0.483194,0.641239,0.996805,0.502453
0.482905,0.641167,0.996705,0.502403
0.482615,0.641095,0.996606,0.502353
0.482325,0.641023,0.996506,0.502303
0.482036,0.640951,0.996406,0.502252
0.481747,0.640879,0.996307,0.502202
0.481458,0.640807,0.996207,0.502152
0.481169,0.640734,0.996107,0.502102
0.48088,0.640662,0.996008,0.502051
0.480592,0.64059,0.995908,0.502001
0.480544,0.640518,0.995809,0.501951
0.480496,0.640446,1,0.501901
0.480207,0.640374,0.9999,0.501851
0.479919,0.640302,0.9998,0.5018
0.479631,0.64023,0.9997,0.50175
0.479344,0.640158,0.9996,0.5017
0.479056,0.640086,0.9995,0.50165
0.478769,0.640014,0.9994,0.5016
0.478481,0.639942,0.9993,0.50155
0.478194,0.63987,0.9992,0.501499
0.477907,0.639798,0.9991,0.501449
0.477621,0.639726,0.999,0.501399
0.477334,0.639654,0.998901,0.501349
0.477048,0.639582,0.998801,0.501299
0.476761,0.639511,0.998701,0.501249
0.476475,0.639439,0.998601,0.501199
0.47619,0.639367,0.998501,0.501148
0.475904,0.639295,0.998401,0.501098
0.475618,0.639223,0.998301,0.501048
0.475333,0.639151,0.998202,0.500998
0.475048,0.639079,0.998102,0.500948
0.474763,0.639007,0.998002,0.500898
0.474478,0.638935,0.997902,0.500848
0.474193,0.638864,0.997802,0.500798
0.473909,0.638792,0.997703,0.500748
0.473625,0.63872,0.997603,0.500698
0.47334,0.638648,0.997503,0.500648
0.473056,0.638576,0.997403,0.500598
0.473009,0.638504,0.997304,0.500547
0.472962,0.638433,1,0.500497
0.472678,0.638361,0.9999,0.500447
0.472394,0.638289,0.9998,0.500397
0.472111,0.638217,0.9997,0.500347
0.471828,0.638145,0.9996,0.500297
0.471545,0.638074,0.9995,0.500247
0.471262,0.638002,0.9994,0.500197
0.470979,0.63793,0.9993,0.500147
0.470697,0.637858,0.9992,0.500097
0.470414,0.637787,0.9991,0.500047
0.470132,0.637715,0.999,0.499997
0.46985,0.637643,0.998901,0.499947
0.469568,0.637572,0.998801,0.499897
0.469286,0.6375,0.998701,0.499847
0.469005,0.637428,0.998601,0.499797
0.468723,0.637356,0.998501,0.499747
0.468442,0.637285,0.998401,0.499697
0.468161,0.637213,0.998301,0.499647
0.46788,0.637141,0.998202,0.499597
0.467599,0.63707,0.998102,0.499547
0.467319,0.636998,0.998002,0.499497
0.467039,0.636926,0.997902,0.499447
0.466758,0.636855,0.997802,0.499397
0.466478,0.636783,0.997703,0.499348
0.466198,0.636712,0.997603,0.499298
0.465919,0.63664,0.997503,0.499248
0.465872,0.636568,0.997403,0.499198
0.465826,0.636497,1,0.499148
0.465546,0.636425,0.9999,0.499098
0.465267,0.636354,0.9998,0.499048
0.464988,0.636282,0.9997,0.498998
0.464709,0.636211,0.9996,0.498948
0.46443,0.636139,0.9995,0.498898
0.464151,0.636067,0.9994,0.498848
0.463873,0.635996,0.9993,0.498799
0.463595,0.635924,0.9992,0.498749
0.463316,0.635853,0.9991,0.498699
0.463038,0.635781,0.999,0.498649
0.462761,0.63571,0.998901,0.498599
0.462483,0.635638,0.998801,0.498549
0.462206,0.635567,0.998701,0.498499
0.461928,0.635495,0.998601,0.498449
0.461651,0.635424,0.998501,0.4984
0.461374,0.635352,0.998401,0.49835
0.461097,0.635281,0.998301,0.4983
0.460821,0.63521,0.998202,0.49825
0.460544,0.635138,0.998102,0.4982
0.460268,0.635067,0.998002,0.49815
0.459992,0.634995,0.997902,0.498101
0.459716,0.634924,0.997802,0.498051
0.45944,0.634852,0.997703,0.498001
0.459164,0.634781,0.997603,0.497951
0.458889,0.63471,0.997503,0.497901
0.458614,0.634638,0.997403,0.497852
0.458338,0.634567,0.997304,0.497802
0.458063,0.634496,0.997204,0.497752
0.457789,0.634424,0.997104,0.497702
0.457514,0.634353,0.997004,0.497653
0.457239,0.634281,0.996905,0.497603
0.456965,0.63421,0.996805,0.497553
0.456691,0.634139,0.996705,0.497503
0.456645,0.634068,0.996606,0.497453
0.4566,0.633996,1,0.497404
0.456326,0.633925,0.9999,0.497354
0.456052,0.633854,0.9998,0.497304
0.455778,0.633782,0.9997,0.497255
0.455505,0.633711,0.9996,0.497205
0.455232,0.63364,0.9995,0.497155
0.454959,0.633569,0.9994,0.497105
0.454686,0.633497,0.9993,0.497056
0.454413,0.633426,0.9992,0.497006
0.45414,0.633355,0.9991,0.496956
0.453868,0.633284,0.999,0.496907
0.453595,0.633212,0.998901,0.496857
0.453323,0.633141,0.998801,0.496807
0.453051,0.63307,0.998701,0.496758
0.452779,0.632999,0.998601,0.496708
0.452508,0.632928,0.998501,0.496658
0.452236,0.632856,0.998401,0.496608
0.451965,0.632785,0.998301,0.496559
0.451694,0.632714,0.998202,0.496509
0.451423,0.632643,0.998102,0.49646
