energy,productivity,fun,hunger
0.841367,0.684611,0.571527,0.454698
0.841283,0.684561,0.588614,0.454652
0.840778,0.684511,0.606212,0.454607
0.840274,0.68446,0.624336,0.454562
0.83977,0.68441,0.643002,0.454516
0.839266,0.68436,0.662226,0.454471
0.838762,0.68431,0.682024,0.454425
0.838259,0.68426,0.702415,0.45438
0.837756,0.684209,0.723415,0.454334
0.837253,0.684159,0.723342,0.454289
0.836751,0.684109,0.72327,0.454243
0.836249,0.684059,0.723198,0.454198
0.835747,0.684009,0.723125,0.454153
0.835246,0.683958,0.723053,0.454107
0.834745,0.683908,0.722981,0.454062
0.834244,0.683858,0.722908,0.454016
0.833744,0.683808,0.722836,0.453971
0.833243,0.683758,0.722764,0.453926
0.832744,0.683708,0.722692,0.45388
0.832244,0.683657,0.722619,0.453835
0.831745,0.683607,0.722547,0.453789
0.831246,0.683557,0.722475,0.453744
0.830747,0.683507,0.722403,0.453699
0.830248,0.683457,0.72233,0.453653
0.82975,0.683407,0.722258,0.453608
0.829253,0.683357,0.722186,0.453563
0.828755,0.683306,0.722114,0.453517
0.828258,0.683256,0.722041,0.453472
0.827761,0.683206,0.721969,0.453426
0.827264,0.683156,0.721897,0.453381
0.826768,0.683106,0.721825,0.453336
0.826272,0.683056,0.721753,0.45329
0.825776,0.683006,0.721681,0.453245
0.825281,0.682956,0.721608,0.4532
0.824786,0.682906,0.721536,0.453154
0.824291,0.682855,0.721464,0.453109
0.823796,0.682805,0.721392,0.453064
0.823302,0.682755,0.72132,0.453019
0.822808,0.682705,0.721248,0.452973
0.822315,0.682655,0.721176,0.452928
0.821821,0.682605,0.721103,0.452883
0.821328,0.682555,0.721031,0.452837
0.820835,0.682505,0.720959,0.452792
0.820343,0.682455,0.720887,0.452747
0.819851,0.682405,0.720815,0.452702
0.819359,0.682355,0.720743,0.452656
0.818867,0.682305,0.720671,0.452611
0.818376,0.682255,0.720599,0.452566
0.818294,0.682205,0.720527,0.45252
0.818212,0.682154,0.720455,0.452475
0.818131,0.682104,0.720383,0.45243
0.818049,0.682054,0.720311,0.452385
0.817967,0.682004,0.720239,0.452339
0.817885,0.681954,0.720167,0.452294
0.817803,0.681904,0.720095,0.452249
0.817722,0.681854,0.720022,0.452204
0.81764,0.681804,0.71995,0.452159
0.817558,0.681754,0.719878,0.452113
0.817476,0.681704,0.719807,0.452068
0.817395,0.681654,0.719735,0.452023
0.817313,0.681604,0.719663,0.451978
0.817231,0.681554,0.719591,0.451933
0.817149,0.681504,0.719519,0.451887
0.817068,0.681454,0.719447,0.451842
0.816986,0.681404,0.719375,0.451797
0.816904,0.681354,0.719303,0.451752
0.816823,0.681304,0.719231,0.451707
0.816741,0.681254,0.719159,0.451661
0.816659,0.681204,0.719087,0.451616
0.816577,0.681154,0.719015,0.451571
0.816496,0.681104,0.718943,0.451526
0.816414,0.681054,0.718871,0.451481
0.816333,0.681004,0.718799,0.451436
0.816251,0.680954,0.718728,0.451391
0.816169,0.680905,0.718656,0.451345
0.816088,0.680855,0.718584,0.4513
0.816006,0.680805,0.718512,0.451255
0.815924,0.680755,0.71844,0.45121
0.815843,0.680705,0.718368,0.451165
0.815761,0.680655,0.718296,0.45112
0.81568,0.680605,0.718225,0.451075
0.815598,0.680555,0.718153,0.45103
0.815517,0.680505,0.718081,0.450984
0.815435,0.680455,0.718009,0.450939
0.815353,0.680405,0.717937,0.450894
0.815272,0.680355,0.717866,0.450849
0.81519,0.680305,0.717794,0.450804
0.815109,0.680255,0.717722,0.450759
0.815027,0.680206,0.71765,0.450714
0.814946,0.680156,0.717578,0.450669
0.814864,0.680106,0.717507,0.450624
0.814783,0.680056,0.717435,0.450579
0.814701,0.680006,0.717363,0.450534
0.81462,0.679956,0.717291,0.450489
0.814538,0.679906,0.71722,0.450444
0.814457,0.679856,0.717148,0.450399
0.814376,0.679806,0.717076,0.450353
0.814294,0.679757,0.717005,0.450308
0.814213,0.679707,0.716933,0.450263
0.814131,0.679657,0.716861,0.450218
0.81405,0.679607,0.71679,0.450173
0.813968,0.679557,0.716718,0.450128
0.813887,0.679507,0.716646,0.450083
0.813806,0.679457,0.716574,0.450038
0.813724,0.679408,0.716503,0.449993
0.813643,0.679358,0.716431,0.449948
0.813562,0.679308,0.71636,0.449903
0.81348,0.679258,0.716288,0.449858
0.813399,0.679208,0.716216,0.449813
0.813318,0.679158,0.716145,0.449768
0.813236,0.679109,0.716073,0.449723
0.813155,0.679059,0.716001,0.449678
0.813074,0.679009,0.71593,0.449633
0.812992,0.678959,0.715858,0.449588
0.812911,0.678909,0.715787,0.449544
0.81283,0.67886,0.715715,0.449499
0.812748,0.67881,0.715644,0.449454
0.812667,0.67876,0.715572,0.449409
0.812586,0.67871,0.7155,0.449364
0.812505,0.67866,0.715429,0.449319
0.812423,0.678611,0.715357,0.449274
0.812342,0.678561,0.715286,0.449229
0.812261,0.678511,0.715214,0.449184
0.81218,0.678461,0.715143,0.449139
0.812098,0.678411,0.715071,0.449094
0.812017,0.678362,0.715,0.449049
0.811936,0.678312,0.714928,0.449004
0.811855,0.678262,0.714857,0.448959
0.811774,0.678212,0.714785,0.448915
0.811692,0.678163,0.714714,0.44887
0.811611,0.678113,0.714642,0.448825
0.81153,0.678063,0.714571,0.44878
0.811449,0.678013,0.714499,0.448735
0.811368,0.677964,0.714428,0.44869
0.811287,0.677914,0.714356,0.448645
0.811206,0.677864,0.714285,0.4486
0.811124,0.677815,0.714214,0.448556
0.811043,0.677765,0.714142,0.448511
0.810962,0.677715,0.714071,0.448466
0.810881,0.677665,0.713999,0.448421
0.8108,0.677616,0.713928,0.448376
0.810719,0.677566,0.713857,0.448331
0.810638,0.677516,0.713785,0.448287
0.810557,0.677467,0.713714,0.448242
0.810476,0.677417,0.713642,0.448197
0.810395,0.677367,0.713571,0.448152
0.810314,0.677317,0.7135,0.448107
0.810233,0.677268,0.713428,0.448062
0.810152,0.677218,0.713357,0.448018
0.810071,0.677168,0.713286,0.447973
0.80999,0.677119,0.713214,0.447928
0.809909,0.677069,0.713143,0.447883
0.809828,0.677019,0.713072,0.447838
0.809747,0.67697,0.713,0.447794
0.809666,0.67692,0.712929,0.447749
0.809585,0.67687,0.712858,0.447704
0.809504,0.676821,0.712787,0.447659
0.809423,0.676771,0.712715,0.447615
0.809342,0.676721,0.712644,0.44757
0.809261,0.676672,0.712573,0.447525
0.80918,0.676622,0.712501,0.44748
0.809099,0.676573,0.71243,0.447436
0.809018,0.676523,0.712359,0.447391
0.808937,0.676473,0.712288,0.447346
0.808856,0.676424,0.712216,0.447301
0.808775,0.676374,0.712145,0.447257
0.808695,0.676324,0.712074,0.447212
0.808614,0.676275,0.712003,0.447167
0.808533,0.676225,0.711932,0.447122
0.808452,0.676176,0.71186,0.447078
0.808371,0.676126,0.711789,0.447033
0.80829,0.676076,0.711718,0.446988
0.808209,0.676027,0.711647,0.446944
0.808129,0.675977,0.711576,0.446899
0.808048,0.675928,0.711505,0.446854
0.807967,0.675878,0.711433,0.44681
0.807886,0.675828,0.711362,0.446765
0.807805,0.675779,0.711291,0.44672
0.807725,0.675729,0.71122,0.446675
0.807644,0.67568,0.711149,0.446631
0.807563,0.67563,0.711078,0.446586
0.807482,0.675581,0.711007,0.446542
0.807402,0.675531,0.710936,0.446497
0.807321,0.675481,0.710864,0.446452
0.80724,0.675432,0.710793,0.446408
0.807159,0.675382,0.710722,0.446363
0.807079,0.675333,0.710651,0.446318
0.806998,0.675283,0.71058,0.446274
0.806917,0.675234,0.710509,0.446229
0.806837,0.675184,0.710438,0.446184
0.806756,0.675135,0.710367,0.44614
0.806675,0.675085,0.731605,0.446095
0.806191,0.675036,0.731532,0.446051
0.805708,0.674986,0.731459,0.446006
0.805224,0.674937,0.731385,0.445961
0.804741,0.674887,0.731312,0.445917
0.804258,0.674838,0.731239,0.445872
0.803776,0.674788,0.731166,0.445828
0.803294,0.674739,0.731093,0.445783
0.802812,0.674689,0.73102,0.445738
0.80233,0.67464,0.730947,0.445694
0.801849,0.67459,0.730874,0.445649
0.801368,0.674541,0.730801,0.445605
0.800887,0.674491,0.730727,0.44556
0.800406,0.674442,0.730654,0.445516
0.799926,0.674392,0.730581,0.445471
0.799446,0.674343,0.730508,0.445426
0.798967,0.674293,0.730435,0.445382
0.798487,0.674244,0.730362,0.445337
0.798008,0.674194,0.730289,0.445293
0.797529,0.674145,0.730216,0.445248
0.797051,0.674095,0.730143,0.445204
0.796573,0.674046,0.73007,0.445159
0.796095,0.673996,0.729997,0.445115
0.795617,0.673947,0.729924,0.44507
0.79514,0.673898,0.729851,0.445026
0.794663,0.673848,0.729778,0.444981
0.794186,0.673799,0.729705,0.444937
0.79371,0.673749,0.729632,0.444892
0.793233,0.6737,0.729559,0.444848
0.792758,0.67365,0.729486,0.444803
0.792282,0.673601,0.729413,0.444759
0.791807,0.673552,0.72934,0.444714
0.791332,0.673502,0.729267,0.44467
0.790857,0.673453,0.729194,0.444625
0.790382,0.673403,0.729122,0.444581
0.790303,0.673354,0.729049,0.444536
0.790224,0.673305,0.728976,0.444492
0.790145,0.673255,0.728903,0.444448
0.790066,0.673206,0.72883,0.444403
0.789987,0.673156,0.728757,0.444359
0.789908,0.673107,0.728684,0.444314
0.789829,0.673058,0.728611,0.44427
0.78975,0.673008,0.728538,0.444225
0.789671,0.672959,0.728466,0.444181
0.789592,0.67291,0.728393,0.444137
0.789513,0.67286,0.72832,0.444092
0.789434,0.672811,0.728247,0.444048
0.789355,0.672761,0.728174,0.444003
0.789277,0.672712,0.728101,0.443959
0.789198,0.672663,0.728029,0.443915
0.789119,0.672613,0.727956,0.44387
0.78904,0.672564,0.727883,0.443826
0.788961,0.672515,0.72781,0.443781
0.788882,0.672465,0.727737,0.443737
0.788803,0.672416,0.727665,0.443693
0.788724,0.672367,0.727592,0.443648
0.788645,0.672317,0.727519,0.443604
0.788566,0.672268,0.727446,0.44356
0.788488,0.672219,0.727374,0.443515
0.788409,0.672169,0.727301,0.443471
0.78833,0.67212,0.727228,0.443426
0.788251,0.672071,0.727155,0.443382
0.788172,0.672022,0.727083,0.443338
0.788093,0.671972,0.72701,0.443293
0.788015,0.671923,0.726937,0.443249
0.787936,0.671874,0.726865,0.443205
0.787857,0.671824,0.726792,0.44316
0.787778,0.671775,0.726719,0.443116
0.787699,0.671726,0.726647,0.443072
0.787621,0.671677,0.726574,0.443028
0.787542,0.671627,0.726501,0.442983
0.787463,0.671578,0.726429,0.442939
0.787384,0.671529,0.726356,0.442895
0.787306,0.671479,0.726283,0.44285
0.787227,0.67143,0.726211,0.442806
0.787148,0.671381,0.726138,0.442762
0.78707,0.671332,0.726065,0.442718
0.786991,0.671282,0.725993,0.442673
0.786912,0.671233,0.72592,0.442629
0.786833,0.671184,0.725848,0.442585
0.786755,0.671135,0.725775,0.44254
0.786676,0.671085,0.725703,0.442496
0.786597,0.671036,0.72563,0.442452
0.786519,0.670987,0.725557,0.442408
0.78644,0.670938,0.725485,0.442363
0.786361,0.670889,0.725412,0.442319
0.786283,0.670839,0.72534,0.442275
0.786204,0.67079,0.725267,0.442231
0.786126,0.670741,0.725195,0.442187
0.786047,0.670692,0.725122,0.442142
0.785968,0.670643,0.72505,0.442098
0.78589,0.670593,0.724977,0.442054
0.785811,0.670544,0.724905,0.44201
0.785733,0.670495,0.724832,0.441966
0.785654,0.670446,0.72476,0.441921
0.785575,0.670397,0.724687,0.441877
0.785497,0.670347,0.724615,0.441833
0.785418,0.670298,0.724542,0.441789
0.78534,0.670249,0.72447,0.441745
0.785261,0.6702,0.724397,0.4417
0.785183,0.670151,0.724325,0.441656
0.785104,0.670102,0.724252,0.441612
0.785026,0.670052,0.72418,0.441568
0.784947,0.670003,0.724108,0.441524
0.784869,0.669954,0.724035,0.44148
0.78479,0.669905,0.723963,0.441435
0.784712,0.669856,0.72389,0.441391
0.784633,0.669807,0.723818,0.441347
0.784555,0.669758,0.723746,0.441303
0.784476,0.669708,0.723673,0.441259
0.784398,0.669659,0.723601,0.441215
0.784319,0.66961,0.723529,0.441171
0.784241,0.669561,0.723456,0.441127
0.784163,0.669512,0.723384,0.441082
0.784084,0.669463,0.723312,0.441038
0.784006,0.669414,0.723239,0.440994
0.783927,0.669365,0.723167,0.44095
0.783849,0.669315,0.723095,0.440906
0.783771,0.669266,0.723022,0.440862
0.783692,0.669217,0.72295,0.440818
0.783614,0.669168,0.722878,0.440774
0.783535,0.669119,0.722805,0.44073
0.783457,0.66907,0.722733,0.440686
0.783379,0.669021,0.722661,0.440642
0.7833,0.668972,0.722589,0.440597
0.783222,0.668923,0.722516,0.440553
0.783144,0.668874,0.722444,0.440509
0.783065,0.668825,0.722372,0.440465
0.782987,0.668776,0.7223,0.440421
0.782909,0.668726,0.722227,0.440377
0.782831,0.668677,0.722155,0.440333
0.782752,0.668628,0.722083,0.440289
0.782674,0.668579,0.722011,0.440245
0.782596,0.66853,0.721938,0.440201
0.782517,0.668481,0.721866,0.440157
0.782439,0.668432,0.721794,0.440113
0.782361,0.668383,0.721722,0.440069
0.782283,0.668334,0.72165,0.440025
0.782205,0.668285,0.721578,0.439981
0.782126,0.668236,0.721505,0.439937
0.782048,0.668187,0.721433,0.439893
0.78197,0.668138,0.721361,0.439849
0.781892,0.668089,0.721289,0.439805
0.781814,0.66804,0.721217,0.439761
0.781735,0.667991,0.721145,0.439717
0.781657,0.667942,0.721073,0.439673
0.781579,0.667893,0.721001,0.439629
0.781501,0.667844,0.720928,0.439585
0.781423,0.667795,0.720856,0.439541
0.781345,0.667746,0.720784,0.439497
0.781266,0.667697,0.720712,0.439453
0.781188,0.667648,0.72064,0.439409
0.78111,0.667599,0.720568,0.439365
0.781032,0.66755,0.720496,0.439322
0.780954,0.667501,0.720424,0.439278
0.780876,0.667452,0.720352,0.439234
0.780798,0.667403,0.72028,0.43919
0.78072,0.667354,0.720208,0.439146
0.780642,0.667305,0.720136,0.439102
0.780564,0.667256,0.720064,0.439058
0.780485,0.667207,0.719992,0.439014
0.780407,0.667158,0.71992,0.43897
0.780329,0.66711,0.719848,0.438926
0.780251,0.667061,0.719776,0.438882
0.780173,0.667012,0.719704,0.438839
0.780095,0.666963,0.719632,0.438795
0.780017,0.666914,0.71956,0.438751
0.779939,0.666865,0.719488,0.438707
0.779861,0.666816,0.719416,0.438663
0.779783,0.666767,0.719344,0.438619
0.779705,0.666718,0.719272,0.438575
0.779627,0.666669,0.7192,0.438531
0.779549,0.66662,0.719128,0.438488
0.779471,0.666571,0.719056,0.438444
0.779394,0.666522,0.718984,0.4384
0.779316,0.666474,0.718913,0.438356
0.779238,0.666425,0.718841,0.438312
0.77916,0.666376,0.718769,0.438268
0.779082,0.666327,0.718697,0.438225
0.779004,0.666278,0.718625,0.438181
0.778926,0.666229,0.718553,0.438137
0.778848,0.66618,0.718481,0.438093
0.77877,0.666131,0.718409,0.438049
0.778692,0.666083,0.718338,0.438005
0.778614,0.666034,0.718266,0.437962
0.778537,0.665985,0.718194,0.437918
0.778459,0.665936,0.718122,0.437874
0.778381,0.665887,0.71805,0.43783
0.778303,0.665838,0.717979,0.437787
0.778225,0.665789,0.717907,0.437743
0.778147,0.665741,0.717835,0.437699
0.77807,0.665692,0.717763,0.437655
0.777992,0.665643,0.717691,0.437611
0.777914,0.665594,0.71762,0.437568
0.777836,0.665545,0.717548,0.437524
0.777758,0.665496,0.717476,0.43748
0.777681,0.665448,0.717404,0.437436
0.777603,0.665399,0.717333,0.437393
0.777525,0.66535,0.717261,0.437349
0.777447,0.665301,0.717189,0.437305
0.77737,0.665252,0.717117,0.437261
0.777292,0.665204,0.717046,0.437218
0.777214,0.665155,0.716974,0.437174
0.777136,0.665106,0.716902,0.43713
0.777059,0.665057,0.716831,0.437087
0.776981,0.665008,0.716759,0.437043
0.776903,0.66496,0.716687,0.436999
0.776826,0.664911,0.716616,0.436955
0.776748,0.664862,0.716544,0.436912
0.77667,0.664813,0.716472,0.436868
0.776593,0.664765,0.716401,0.436824
0.776515,0.664716,0.716329,0.436781
0.776437,0.664667,0.716257,0.436737
0.77636,0.664618,0.716186,0.436693
0.776282,0.664569,0.716114,0.43665
0.776204,0.664521,0.716042,0.436606
0.776127,0.664472,0.715971,0.436562
0.776049,0.664423,0.715899,0.436519
0.775972,0.664374,0.715828,0.436475
0.775894,0.664326,0.715756,0.436431
0.775816,0.664277,0.715685,0.436388
0.775739,0.664228,0.715613,0.436344
0.775661,0.66418,0.715541,0.4363
0.775584,0.664131,0.71547,0.436257
0.775506,0.664082,0.715398,0.436213
0.775429,0.664033,0.715327,0.43617
0.775351,0.663985,0.715255,0.436126
0.775273,0.663936,0.715184,0.436082
0.775196,0.663887,0.715112,0.436039
0.775118,0.663839,0.715041,0.435995
0.775041,0.66379,0.714969,0.435952
0.774963,0.663741,0.714898,0.435908
0.774886,0.663692,0.714826,0.435864
0.774808,0.663644,0.714755,0.435821
0.774731,0.663595,0.714683,0.435777
0.774653,0.663546,0.714612,0.435734
0.774576,0.663498,0.71454,0.43569
0.774499,0.663449,0.714469,0.435646
0.774421,0.6634,0.714397,0.435603
0.774344,0.663352,0.714326,0.435559
0.774266,0.663303,0.714255,0.435516
0.774189,0.663254,0.714183,0.435472
0.774111,0.663206,0.714112,0.435429
0.774034,0.663157,0.71404,0.435385
0.773957,0.663108,0.713969,0.435342
0.773879,0.66306,0.713897,0.435298
0.773802,0.663011,0.713826,0.435255
0.773724,0.662963,0.713755,0.435211
0.773647,0.662914,0.713683,0.435168
0.77357,0.662865,0.713612,0.435124
0.773492,0.662817,0.713541,0.43508
0.773415,0.662768,0.713469,0.435037
0.773338,0.662719,0.713398,0.434993
0.77326,0.662671,0.713327,0.43495
0.773183,0.662622,0.713255,0.434906
0.773106,0.662574,0.713184,0.434863
0.773028,0.662525,0.713113,0.43482
0.772951,0.662476,0.713041,0.434776
0.772874,0.662428,0.71297,0.434733
0.772796,0.662379,0.712899,0.434689
0.772719,0.662331,0.712827,0.434646
0.772642,0.662282,0.712756,0.434602
0.772565,0.662233,0.712685,0.434559
0.772487,0.662185,0.712614,0.434515
0.77241,0.662136,0.712542,0.434472
0.772333,0.662088,0.712471,0.434428
0.772256,0.662039,0.7124,0.434385
0.772178,0.661991,0.712329,0.434341
0.772101,0.661942,0.712257,0.434298
0.772024,0.661893,0.712186,0.434255
0.771947,0.661845,0.712115,0.434211
0.77187,0.661796,0.712044,0.434168
0.771792,0.661748,0.711972,0.434124
0.771715,0.661699,0.711901,0.434081
0.771638,0.661651,0.71183,0.434037
0.771561,0.661602,0.711759,0.433994
0.771484,0.661554,0.711688,0.433951
0.771407,0.661505,0.711617,0.433907
0.771329,0.661457,0.711545,0.433864
0.771252,0.661408,0.711474,0.433821
0.771175,0.661359,0.711403,0.433777
0.771098,0.661311,0.711332,0.433734
0.771021,0.661262,0.711261,0.43369
0.770944,0.661214,0.71119,0.433647
0.770867,0.661165,0.711119,0.433604
0.77079,0.661117,0.711047,0.43356
0.770713,0.661068,0.710976,0.433517
0.770636,0.66102,0.710905,0.433474
0.770558,0.660971,0.710834,0.43343
0.770481,0.660923,0.710763,0.433387
0.770404,0.660874,0.710692,0.433344
0.770327,0.660826,0.710621,0.4333
0.77025,0.660778,0.71055,0.433257
0.770173,0.660729,0.710479,0.433214
0.770096,0.660681,0.710408,0.43317
0.770019,0.660632,0.731647,0.433127
0.769557,0.660584,0.731574,0.433084
0.769096,0.660535,0.7315,0.43304
0.768634,0.660487,0.731427,0.432997
0.768173,0.660438,0.731354,0.432954
0.767712,0.66039,0.731281,0.43291
0.767252,0.660341,0.731208,0.432867
0.766791,0.660293,0.731135,0.432824
0.766331,0.660245,0.731062,0.432781
0.765871,0.660196,0.730989,0.432737
0.765412,0.660148,0.730915,0.432694
0.764953,0.660099,0.730842,0.432651
0.764494,0.660051,0.730769,0.432607
0.764035,0.660002,0.730696,0.432564
0.763577,0.659954,0.730623,0.432521
0.763119,0.659906,0.73055,0.432478
0.762661,0.659857,0.730477,0.432434
0.762203,0.659809,0.730404,0.432391
0.761746,0.65976,0.730331,0.432348
0.761289,0.659712,0.730258,0.432305
0.760832,0.659664,0.730185,0.432261
0.760376,0.659615,0.730112,0.432218
0.75992,0.659567,0.730039,0.432175
0.759464,0.659518,0.729966,0.432132
0.759008,0.65947,0.729893,0.432089
0.758553,0.659422,0.72982,0.432045
0.758098,0.659373,0.729747,0.432002
0.757643,0.659325,0.729674,0.431959
0.757188,0.659276,0.729601,0.431916
0.756734,0.659228,0.729528,0.431873
0.75628,0.65918,0.729455,0.431829
0.755826,0.659131,0.729382,0.431786
0.755373,0.659083,0.729309,0.431743
0.75492,0.659035,0.729236,0.4317
0.754467,0.658986,0.729163,0.431657
0.754014,0.658938,0.72909,0.431614
0.753562,0.65889,0.729017,0.43157
0.75311,0.658841,0.728945,0.431527
0.752658,0.658793,0.728872,0.431484
0.752582,0.658745,0.728799,0.431441
0.752507,0.658696,0.728726,0.431398
0.752432,0.658648,0.728653,0.431355
0.752357,0.6586,0.72858,0.431312
0.752281,0.658551,0.728507,0.431268
0.752206,0.658503,0.728434,0.431225
0.752131,0.658455,0.728362,0.431182
0.752056,0.658406,0.728289,0.431139
0.751981,0.658358,0.728216,0.431096
0.751905,0.65831,0.728143,0.431053
0.75183,0.658262,0.72807,0.43101
0.751755,0.658213,0.727998,0.430967
0.75168,0.658165,0.727925,0.430923
0.751605,0.658117,0.727852,0.43088
0.751529,0.658068,0.727779,0.430837
0.751454,0.65802,0.727706,0.430794
0.751379,0.657972,0.727634,0.430751
0.751304,0.657924,0.727561,0.430708
0.751229,0.657875,0.727488,0.430665
0.751154,0.657827,0.727415,0.430622
0.751079,0.657779,0.727343,0.430579
0.751004,0.657731,0.72727,0.430536
0.750928,0.657682,0.727197,0.430493
0.750853,0.657634,0.727124,0.43045
0.750778,0.657586,0.727052,0.430407
0.750703,0.657538,0.726979,0.430364
0.750628,0.657489,0.726906,0.430321
0.750553,0.657441,0.726834,0.430278
0.750478,0.657393,0.726761,0.430235
0.750403,0.657345,0.726688,0.430192
0.750328,0.657296,0.726616,0.430148
0.750253,0.657248,0.726543,0.430105
0.750178,0.6572,0.72647,0.430062
0.750103,0.657152,0.726398,0.430019
0.750028,0.657104,0.726325,0.429976
0.749953,0.657055,0.726252,0.429933
