energy,productivity,fun,hunger
0.645908,0.406601,0.75122,0.778145
0.645843,0.406541,0.751144,0.778067
0.645456,0.406482,0.751069,0.77799
0.645068,0.406423,0.750994,0.777912
0.644681,0.406363,0.750919,0.777834
0.644295,0.406304,0.750844,0.777756
0.643908,0.406245,0.750769,0.777678
0.643522,0.406186,0.750694,0.777601
0.643136,0.406126,0.750619,0.777523
0.64275,0.406067,0.750544,0.777445
0.642364,0.406008,0.750469,0.777367
0.641979,0.405949,0.750394,0.77729
0.641594,0.405889,0.750319,0.777212
0.641209,0.40583,0.750244,0.777134
0.640824,0.405771,0.750169,0.777056
0.64044,0.405712,0.750094,0.776979
0.640055,0.405653,0.750019,0.776901
0.639671,0.405593,0.749944,0.776823
0.639288,0.405534,0.749869,0.776746
0.638904,0.405475,0.749794,0.776668
0.638521,0.405416,0.749719,0.77659
0.638138,0.405357,0.749644,0.776513
0.637755,0.405298,0.749569,0.776435
0.637372,0.405238,0.749494,0.776357
0.63699,0.405179,0.749419,0.77628
0.636608,0.40512,0.749344,0.776202
0.636226,0.405061,0.749269,0.776125
0.635844,0.405002,0.749194,0.776047
0.63578,0.404943,0.749119,0.775969
0.635717,0.404884,0.749044,0.775892
0.635653,0.404825,0.748969,0.775814
0.63559,0.404766,0.748894,0.775737
0.635526,0.404707,0.748819,0.775659
0.635463,0.404648,0.748745,0.775581
0.635399,0.404589,0.74867,0.775504
0.635336,0.40453,0.748595,0.775426
0.635272,0.404471,0.74852,0.775349
0.635209,0.404412,0.748445,0.775271
0.635145,0.404353,0.74837,0.775194
0.635081,0.404294,0.748295,0.775116
0.635018,0.404235,0.748221,0.775039
0.634954,0.404176,0.748146,0.774961
0.634891,0.404117,0.748071,0.774884
0.634827,0.404058,0.747996,0.774806
0.634764,0.403999,0.747921,0.774729
0.634701,0.40394,0.747847,0.774651
0.634637,0.403881,0.747772,0.774574
0.634574,0.403822,0.747697,0.774496
0.63451,0.403763,0.747622,0.774419
0.634447,0.403704,0.747547,0.774341
0.634383,0.403645,0.747473,0.774264
0.63432,0.403586,0.747398,0.774187
0.634256,0.403528,0.747323,0.774109
0.634193,0.403469,0.747248,0.774032
0.63413,0.40341,0.747174,0.773954
0.634066,0.403351,0.747099,0.773877
0.634003,0.403292,0.747024,0.7738
0.633939,0.403233,0.74695,0.773722
0.633876,0.403175,0.746875,0.773645
0.633813,0.403116,0.7468,0.773567
0.633749,0.403057,0.746726,0.77349
0.633686,0.402998,0.746651,0.773413
0.633622,0.402939,0.746576,0.773335
0.633559,0.402881,0.746502,0.773258
0.633496,0.402822,0.746427,0.773181
0.633432,0.402763,0.746352,0.773103
0.633369,0.402704,0.746278,0.773026
0.633306,0.402645,0.746203,0.772949
0.633242,0.402587,0.746128,0.772871
0.633179,0.402528,0.746054,0.772794
0.633116,0.402469,0.745979,0.772717
0.633052,0.402411,0.745905,0.77264
0.632989,0.402352,0.74583,0.772562
0.632926,0.402293,0.745755,0.772485
0.632862,0.402234,0.745681,0.772408
0.632799,0.402176,0.745606,0.772331
0.632736,0.402117,0.745532,0.772253
0.632673,0.402058,0.745457,0.772176
0.632609,0.402,0.745383,0.772099
0.632546,0.401941,0.745308,0.772022
0.632483,0.401883,0.745234,0.771945
0.63242,0.401824,0.745159,0.771867
0.632356,0.401765,0.745084,0.77179
0.632293,0.401707,0.74501,0.771713
0.63223,0.401648,0.744935,0.771636
0.632167,0.401589,0.744861,0.771559
0.632103,0.401531,0.744786,0.771481
0.63204,0.401472,0.744712,0.771404
0.631977,0.401414,0.744638,0.771327
0.631914,0.401355,0.744563,0.77125
0.631851,0.401297,0.744489,0.771173
0.631787,0.401238,0.744414,0.771096
0.631724,0.40118,0.74434,0.771019
0.631661,0.401121,0.744265,0.770942
0.631598,0.401063,0.744191,0.770865
0.631535,0.401004,0.744116,0.770787
0.631472,0.400946,0.744042,0.77071
0.631408,0.400887,0.743968,0.770633
0.631345,0.400829,0.743893,0.770556
0.631282,0.40077,0.743819,0.770479
0.631219,0.400712,0.743744,0.770402
0.631156,0.400653,0.74367,0.770325
0.631093,0.400595,0.743596,0.770248
0.63103,0.400536,0.743521,0.770171
0.630967,0.400478,0.743447,0.770094
0.630904,0.400419,0.743373,0.770017
0.63084,0.400361,0.743298,0.76994
0.630777,0.400303,0.743224,0.769863
0.630714,0.400244,0.74315,0.769786
0.630651,0.400186,0.743075,0.769709
0.630588,0.400127,0.743001,0.769632
0.630525,0.400069,0.742927,0.769555
0.630462,0.400011,0.742852,0.769478
0.630399,0.399952,0.742778,0.769401
0.630336,0.399894,0.742704,0.769324
0.630273,0.399836,0.74263,0.769247
0.63021,0.399777,0.742555,0.76917
0.630147,0.399719,0.742481,0.769093
0.630084,0.399661,0.742407,0.769017
0.630021,0.399602,0.742333,0.76894
0.629958,0.399544,0.742258,0.768863
0.629895,0.399486,0.742184,0.768786
0.629832,0.399428,0.74211,0.768709
0.629769,0.399369,0.742036,0.768632
0.629706,0.399311,0.741962,0.768555
0.629643,0.399253,0.741887,0.768478
0.62958,0.399195,0.741813,0.768402
0.629517,0.399136,0.741739,0.768325
0.629454,0.399078,0.741665,0.768248
0.629391,0.39902,0.741591,0.768171
0.629328,0.398962,0.741516,0.768094
0.629265,0.398903,0.741442,0.768017
0.629202,0.398845,0.741368,0.767941
0.629139,0.398787,0.741294,0.767864
0.629076,0.398729,0.74122,0.767787
0.629014,0.398671,0.741146,0.76771
0.628951,0.398613,0.741072,0.767634
0.628888,0.398554,0.740998,0.767557
0.628825,0.398496,0.740923,0.76748
0.628762,0.398438,0.740849,0.767403
0.628699,0.39838,0.740775,0.767327
0.628636,0.398322,0.740701,0.76725
0.628573,0.398264,0.740627,0.767173
0.628511,0.398206,0.740553,0.767096
0.628448,0.398148,0.740479,0.76702
0.628385,0.39809,0.740405,0.766943
0.628322,0.398031,0.740331,0.766866
0.628259,0.397973,0.740257,0.76679
0.628196,0.397915,0.740183,0.766713
0.628134,0.397857,0.740109,0.766636
0.628071,0.397799,0.740035,0.76656
0.628008,0.397741,0.739961,0.766483
0.627945,0.397683,0.739887,0.766406
0.627882,0.397625,0.739813,0.76633
0.62782,0.397567,0.739739,0.766253
0.627757,0.397509,0.739665,0.766176
0.627694,0.397451,0.739591,0.7661
0.627631,0.397393,0.739517,0.766023
0.627568,0.397335,0.739443,0.765946
0.627506,0.397277,0.739369,0.76587
0.627443,0.397219,0.739295,0.765793
0.62738,0.397161,0.739221,0.765717
0.627317,0.397103,0.739147,0.76564
0.627255,0.397045,0.739073,0.765564
0.627192,0.396988,0.738999,0.765487
0.627129,0.39693,0.738926,0.76541
0.627067,0.396872,0.738852,0.765334
0.627004,0.396814,0.738778,0.765257
0.626941,0.396756,0.738704,0.765181
0.626878,0.396698,0.73863,0.765104
0.626816,0.39664,0.738556,0.765028
0.626753,0.396582,0.738482,0.764951
0.62669,0.396524,0.738408,0.764875
0.626628,0.396467,0.738335,0.764798
0.626565,0.396409,0.738261,0.764722
0.626502,0.396351,0.738187,0.764645
0.62644,0.396293,0.738113,0.764569
0.626377,0.396235,0.738039,0.764493
0.626314,0.396178,0.737966,0.764416
0.626252,0.39612,0.737892,0.76434
0.626189,0.396062,0.737818,0.764263
0.626127,0.396004,0.737744,0.764187
0.626064,0.395946,0.73767,0.76411
0.626001,0.395889,0.737597,0.764034
0.625939,0.395831,0.737523,0.763958
0.625876,0.395773,0.737449,0.763881
0.625814,0.395715,0.737375,0.763805
0.625751,0.395658,0.737302,0.763728
0.625688,0.3956,0.737228,0.763652
0.625626,0.395542,0.737154,0.763576
0.625563,0.395485,0.73708,0.763499
0.625501,0.395427,0.737007,0.763423
0.625438,0.395369,0.736933,0.763347
0.625376,0.395312,0.736859,0.76327
0.625313,0.395254,0.736786,0.763194
0.625251,0.395196,0.736712,0.763118
0.625188,0.395139,0.736638,0.763041
0.625126,0.395081,0.736565,0.762965
0.625063,0.395023,0.736491,0.762889
0.625001,0.394966,0.736417,0.762812
0.624938,0.394908,0.736344,0.762736
0.624876,0.39485,0.73627,0.76266
0.624813,0.394793,0.736196,0.762584
0.624751,0.394735,0.736123,0.762507
0.624688,0.394678,0.736049,0.762431
0.624626,0.39462,0.735976,0.762355
0.624563,0.394562,0.735902,0.762279
0.624501,0.394505,0.735828,0.762202
0.624438,0.394447,0.735755,0.762126
0.624376,0.39439,0.735681,0.76205
0.624313,0.394332,0.735608,0.761974
0.624251,0.394275,0.735534,0.761898
0.624189,0.394217,0.735461,0.761821
0.624126,0.39416,0.735387,0.761745
0.624064,0.394102,0.735314,0.761669
0.624001,0.394045,0.73524,0.761593
0.623939,0.393987,0.735166,0.761517
0.623876,0.39393,0.735093,0.76144
0.623814,0.393872,0.735019,0.761364
0.623752,0.393815,0.734946,0.761288
0.623689,0.393757,0.734872,0.761212
0.623627,0.3937,0.734799,0.761136
0.623565,0.393643,0.734725,0.76106
0.623502,0.393585,0.734652,0.760984
0.62344,0.393528,0.734579,0.760908
0.623378,0.39347,0.734505,0.760832
0.623315,0.393413,0.734432,0.760755
0.623253,0.393355,0.734358,0.760679
0.623191,0.393298,0.734285,0.760603
0.623128,0.393241,0.734211,0.760527
0.623066,0.393183,0.734138,0.760451
0.623004,0.393126,0.734064,0.760375
0.622941,0.393069,0.733991,0.760299
0.622879,0.393011,0.733918,0.760223
0.622817,0.392954,0.733844,0.760147
0.622754,0.392897,0.733771,0.760071
0.622692,0.392839,0.733698,0.759995
0.62263,0.392782,0.733624,0.759919
0.622568,0.392725,0.733551,0.759843
0.622505,0.392667,0.733477,0.759767
0.622443,0.39261,0.733404,0.759691
0.622381,0.392553,0.733331,0.759615
0.622319,0.392496,0.733257,0.759539
0.622256,0.392438,0.733184,0.759463
0.622194,0.392381,0.733111,0.759387
0.622132,0.392324,0.733037,0.759311
0.62207,0.392267,0.732964,0.759235
0.622008,0.392209,0.732891,0.759159
0.621945,0.392152,0.732818,0.759084
0.621883,0.392095,0.732744,0.759008
0.621821,0.392038,0.732671,0.758932
0.621759,0.391981,0.732598,0.758856
0.621697,0.391923,0.732524,0.75878
0.621634,0.391866,0.732451,0.758704
0.621572,0.391809,0.732378,0.758628
0.62151,0.391752,0.732305,0.758552
0.621448,0.391695,0.732232,0.758477
0.621386,0.391638,0.732158,0.758401
0.621324,0.39158,0.732085,0.758325
0.621262,0.391523,0.732012,0.758249
0.621199,0.391466,0.731939,0.758173
0.621137,0.391409,0.731865,0.758097
0.621075,0.391352,0.731792,0.758022
0.621013,0.391295,0.731719,0.757946
0.620951,0.391238,0.731646,0.75787
0.620889,0.391181,0.731573,0.757794
0.620827,0.391124,0.7315,0.757718
0.620765,0.391067,0.731426,0.757643
0.620703,0.39101,0.731353,0.757567
0.620641,0.390953,0.73128,0.757491
0.620579,0.390896,0.731207,0.757415
0.620516,0.390839,0.731134,0.75734
0.620454,0.390782,0.731061,0.757264
0.620392,0.390725,0.730988,0.757188
0.62033,0.390668,0.730915,0.757112
0.620268,0.390611,0.730842,0.757037
0.620206,0.390554,0.730768,0.756961
0.620144,0.390497,0.730695,0.756885
0.620082,0.39044,0.730622,0.75681
0.62002,0.390383,0.730549,0.756734
0.619958,0.390326,0.730476,0.756658
0.619896,0.390269,0.730403,0.756583
0.619834,0.390212,0.73033,0.756507
0.619772,0.390155,0.730257,0.756431
0.61971,0.390098,0.730184,0.756356
0.619648,0.390041,0.730111,0.75628
0.619586,0.389984,0.730038,0.756204
0.619524,0.389927,0.729965,0.756129
0.619462,0.38987,0.729892,0.756053
0.6194,0.389814,0.729819,0.755978
0.619339,0.389757,0.729746,0.755902
0.619277,0.3897,0.729673,0.755826
0.619215,0.389643,0.7296,0.755751
0.619153,0.389586,0.729527,0.755675
0.619091,0.389529,0.729454,0.7556
0.619029,0.389472,0.729381,0.755524
0.618967,0.389416,0.729308,0.755449
0.618905,0.389359,0.729235,0.755373
0.618843,0.389302,0.729162,0.755297
0.618781,0.389245,0.72909,0.755222
0.618719,0.389188,0.729017,0.755146
0.618658,0.389132,0.728944,0.755071
0.618596,0.389075,0.728871,0.754995
0.618534,0.389018,0.728798,0.75492
0.618472,0.388961,0.728725,0.754844
0.61841,0.388905,0.728652,0.754769
0.618348,0.388848,0.728579,0.754693
0.618287,0.388791,0.728506,0.754618
0.618225,0.388734,0.728434,0.754542
0.618163,0.388678,0.728361,0.754467
0.618101,0.388621,0.728288,0.754392
0.618039,0.388564,0.728215,0.754316
0.617977,0.388508,0.728142,0.754241
0.617916,0.388451,0.728069,0.754165
0.617854,0.388394,0.727997,0.75409
0.617792,0.388338,0.727924,0.754014
0.61773,0.388281,0.727851,0.753939
0.617669,0.388224,0.727778,0.753864
0.617607,0.388168,0.727705,0.753788
0.617545,0.388111,0.727633,0.753713
0.617483,0.388055,0.72756,0.753638
0.617421,0.387998,0.727487,0.753562
0.61736,0.387941,0.727414,0.753487
0.617298,0.387885,0.727342,0.753411
0.617236,0.387828,0.727269,0.753336
0.617175,0.387772,0.727196,0.753261
0.617113,0.387715,0.727124,0.753185
0.617051,0.387658,0.727051,0.75311
0.616989,0.387602,0.726978,0.753035
0.616928,0.387545,0.726905,0.75296
0.616866,0.387489,0.726833,0.752884
0.616804,0.387432,0.72676,0.752809
0.616743,0.387376,0.726687,0.752734
0.616681,0.387319,0.726615,0.752658
0.616619,0.387263,0.726542,0.752583
0.616558,0.387206,0.726469,0.752508
0.616496,0.38715,0.726397,0.752433
0.616434,0.387093,0.726324,0.752357
0.616373,0.387037,0.726251,0.752282
0.616311,0.38698,0.726179,0.752207
0.616249,0.386924,0.726106,0.752132
0.616188,0.386867,0.726034,0.752056
0.616126,0.386811,0.725961,0.751981
0.616065,0.386755,0.725888,0.751906
0.616003,0.386698,0.725816,0.751831
0.615941,0.386642,0.725743,0.751756
0.61588,0.386585,0.725671,0.751681
0.615818,0.386529,0.725598,0.751605
0.615757,0.386473,0.725526,0.75153
0.615695,0.386416,0.725453,0.751455
0.615633,0.38636,0.72538,0.75138
0.615572,0.386303,0.725308,0.751305
0.61551,0.386247,0.725235,0.75123
0.615449,0.386191,0.725163,0.751154
0.615387,0.386134,0.72509,0.751079
0.615326,0.386078,0.725018,0.751004
0.615264,0.386022,0.724945,0.750929
0.615203,0.385965,0.724873,0.750854
0.615141,0.385909,0.7248,0.750779
0.61508,0.385853,0.724728,0.750704
0.615018,0.385797,0.724655,0.750629
0.614957,0.38574,0.724583,0.750554
0.614895,0.385684,0.72451,0.750479
0.614834,0.385628,0.724438,0.750404
0.614772,0.385571,0.724366,0.750329
0.614711,0.385515,0.724293,0.750254
0.614649,0.385459,0.724221,0.750179
0.614588,0.385403,0.724148,0.750104
0.614526,0.385347,0.724076,0.750029
0.614465,0.38529,0.724003,0.749954
0.614403,0.385234,0.723931,0.749879
0.614342,0.385178,0.723859,0.749804
0.61428,0.385122,0.723786,0.749729
0.614219,0.385066,0.723714,0.749654
0.614158,0.385009,0.723642,0.749579
0.614096,0.384953,0.723569,0.749504
0.614035,0.384897,0.723497,0.749429
0.613973,0.384841,0.723424,0.749354
0.613912,0.384785,0.723352,0.749279
0.613851,0.384729,0.72328,0.749204
0.613789,0.384672,0.723207,0.749129
0.613728,0.384616,0.723135,0.749054
0.613666,0.38456,0.723063,0.748979
0.613605,0.384504,0.722991,0.748904
0.613544,0.384448,0.722918,0.748829
0.613482,0.384392,0.722846,0.748755
0.613421,0.384336,0.722774,0.74868
0.61336,0.38428,0.722701,0.748605
0.613298,0.384224,0.722629,0.74853
0.613237,0.384168,0.722557,0.748455
0.613176,0.384112,0.722485,0.74838
0.613114,0.384056,0.722412,0.748305
0.613053,0.384,0.72234,0.748231
0.612992,0.383944,0.722268,0.748156
0.61293,0.383888,0.722196,0.748081
0.612869,0.383832,0.722123,0.748006
0.612808,0.383776,0.722051,0.747931
0.612747,0.38372,0.721979,0.747857
0.612685,0.383664,0.721907,0.747782
0.612624,0.383608,0.721835,0.747707
0.612563,0.383552,0.721762,0.747632
0.612502,0.383496,0.72169,0.747557
0.61244,0.38344,0.721618,0.747483
0.612379,0.383384,0.721546,0.747408
0.612318,0.383328,0.721474,0.747333
0.612257,0.383272,0.721402,0.747258
0.612195,0.383216,0.721329,0.747184
0.612134,0.38316,0.721257,0.747109
0.612073,0.383104,0.721185,0.747034
0.612012,0.383048,0.721113,0.74696
0.611951,0.382993,0.721041,0.746885
0.611889,0.382937,0.720969,0.74681
0.611828,0.382881,0.720897,0.746736
0.611767,0.382825,0.720825,0.746661
0.611706,0.382769,0.720753,0.746586
0.611645,0.382713,0.720681,0.746512
0.611583,0.382657,0.720608,0.746437
0.611522,0.382602,0.720536,0.746362
0.611461,0.382546,0.720464,0.746288
0.6114,0.38249,0.720392,0.746213
0.611339,0.382434,0.72032,0.746138
0.611278,0.382378,0.720248,0.746064
0.611217,0.382323,0.720176,0.745989
0.611155,0.382267,0.720104,0.745915
0.611094,0.382211,0.720032,0.74584
0.611033,0.382155,0.71996,0.745765
0.610972,0.3821,0.719888,0.745691
0.610911,0.382044,0.719816,0.745616
0.61085,0.381988,0.719744,0.745542
0.610789,0.381932,0.719672,0.745467
0.610728,0.381877,0.7196,0.745393
0.610667,0.381821,0.719528,0.745318
0.610606,0.381765,0.719456,0.745243
0.610545,0.38171,0.719384,0.745169
0.610484,0.381654,0.719312,0.745094
0.610422,0.381598,0.719241,0.74502
0.610361,0.381543,0.719169,0.744945
0.6103,0.381487,0.719097,0.744871
0.610239,0.381431,0.719025,0.744796
0.610178,0.381376,0.718953,0.744722
0.610117,0.38132,0.718881,0.744647
0.610056,0.381264,0.718809,0.744573
0.609995,0.381209,0.718737,0.744499
0.609934,0.381153,0.718665,0.744424
0.609873,0.381097,0.718593,0.74435
0.609812,0.381042,0.718522,0.744275
0.609751,0.380986,0.71845,0.744201
0.60969,0.380931,0.718378,0.744126
0.609629,0.380875,0.718306,0.744052
0.609568,0.38082,0.718234,0.743978
0.609508,0.380764,0.718162,0.743903
0.609447,0.380708,0.718091,0.743829
0.609386,0.380653,0.718019,0.743754
0.609325,0.380597,0.717947,0.74368
0.609264,0.380542,0.717875,0.743606
0.609203,0.380486,0.717803,0.743531
0.609142,0.380431,0.717732,0.743457
0.609081,0.380375,0.71766,0.743383
0.60902,0.38032,0.717588,0.743308
0.608959,0.380264,0.717516,0.743234
0.608898,0.380209,0.717445,0.74316
0.608837,0.380153,0.717373,0.743085
0.608776,0.380098,0.717301,0.743011
0.608716,0.380043,0.717229,0.742937
0.608655,0.379987,0.717158,0.742862
0.608594,0.379932,0.717086,0.742788
0.608533,0.379876,0.717014,0.742714
0.608472,0.379821,0.716943,0.74264
0.608411,0.379765,0.716871,0.742565
0.60835,0.37971,0.716799,0.742491
0.60829,0.379655,0.716727,0.742417
0.608229,0.379599,0.716656,0.742343
0.608168,0.379544,0.716584,0.742268
0.608107,0.379489,0.716512,0.742194
0.608046,0.379433,0.716441,0.74212
0.607986,0.379378,0.716369,0.742046
0.607925,0.379322,0.716298,0.741971
0.607864,0.379267,0.716226,0.741897
0.607803,0.379212,0.716154,0.741823
0.607742,0.379156,0.716083,0.741749
0.607682,0.379101,0.716011,0.741675
0.607621,0.379046,0.715939,0.741601
0.60756,0.378991,0.715868,0.741526
0.607499,0.378935,0.715796,0.741452
0.607439,0.37888,0.715725,0.741378
0.607378,0.378825,0.715653,0.741304
0.607317,0.378769,0.715582,0.74123
0.607256,0.378714,0.71551,0.741156
0.607196,0.378659,0.715438,0.741082
0.607135,0.378604,0.715367,0.741007
0.607074,0.378548,0.715295,0.740933
0.607014,0.378493,0.715224,0.740859
0.606953,0.378438,0.715152,0.740785
0.606892,0.378383,0.715081,0.740711
0.606831,0.378328,0.715009,0.740637
0.606771,0.378272,0.714938,0.740563
0.60671,0.378217,0.714866,0.740489
0.606649,0.378162,0.714795,0.740415
0.606589,0.378107,0.714723,0.740341
0.606528,0.378052,0.714652,0.740267
0.606467,0.377997,0.71458,0.740193
0.606407,0.377941,0.714509,0.740119
0.606346,0.377886,0.714437,0.740045
0.606285,0.377831,0.714366,0.739971
0.606225,0.377776,0.714295,0.739897
0.606164,0.377721,0.714223,0.739823
0.606104,0.377666,0.714152,0.739749
0.606043,0.377611,0.71408,0.739675
0.605982,0.377556,0.714009,0.739601
0.605922,0.377501,0.713938,0.739527
0.605861,0.377446,0.713866,0.739453
0.605801,0.37739,0.713795,0.739379
0.60574,0.377335,0.713723,0.739305
0.605679,0.37728,0.713652,0.739231
0.605619,0.377225,0.713581,0.739157
0.605558,0.37717,0.713509,0.739083
0.605498,0.377115,0.713438,0.739009
0.605437,0.37706,0.713367,0.738935
0.605377,0.377005,0.713295,0.738862
0.605316,0.37695,0.713224,0.738788
0.605256,0.376895,0.713153,0.738714
0.605195,0.37684,0.713081,0.73864
0.605135,0.376785,0.71301,0.738566
0.605074,0.37673,0.712939,0.738492
0.605014,0.376675,0.712867,0.738418
0.604953,0.37662,0.712796,0.738344
0.604893,0.376566,0.712725,0.738271
0.604832,0.376511,0.712654,0.738197
0.604772,0.376456,0.712582,0.738123
0.604711,0.376401,0.712511,0.738049
0.604651,0.376346,0.71244,0.737975
0.60459,0.376291,0.712369,0.737902
0.60453,0.376236,0.712297,0.737828
0.604469,0.376181,0.712226,0.737754
0.604409,0.376126,0.712155,0.73768
0.604348,0.376071,0.712084,0.737606
0.604288,0.376017,0.712012,0.737533
0.604228,0.375962,0.711941,0.737459
0.604167,0.375907,0.71187,0.737385
0.604107,0.375852,0.711799,0.737311
0.604046,0.375797,0.711728,0.737238
0.603986,0.375742,0.711656,0.737164
0.603925,0.375688,0.711585,0.73709
0.603865,0.375633,0.711514,0.737017
0.603805,0.375578,0.711443,0.736943
0.603744,0.375523,0.711372,0.736869
0.603684,0.375468,0.711301,0.736796
0.603624,0.375414,0.71123,0.736722
0.603563,0.375359,0.711158,0.736648
0.603503,0.375304,0.711087,0.736574
0.603443,0.375249,0.711016,0.736501
0.603382,0.375195,0.710945,0.736427
0.603322,0.37514,0.710874,0.736354
0.603261,0.375085,0.710803,0.73628
0.603201,0.37503,0.710732,0.736206
0.603141,0.374976,0.710661,0.736133
0.603081,0.374921,0.71059,0.736059
0.60302,0.374866,0.710519,0.735985
0.60296,0.374812,0.710448,0.735912
0.6029,0.374757,0.710377,0.735838
0.602839,0.374702,0.710306,0.735765
