energy,productivity,fun,hunger
0.678785,0.734306,0.637025,0.842997
0.678718,0.734237,0.65607,0.842913
0.67831,0.734169,0.675684,0.842828
0.677903,0.7341,0.695885,0.842744
0.677497,0.734032,0.71669,0.84266
0.67709,0.733963,0.738117,0.842576
0.676684,0.733894,0.738043,0.842491
0.676278,0.733826,0.737969,0.842407
0.675872,0.733757,0.737896,0.842323
0.675467,0.733688,0.737822,0.842239
0.675062,0.73362,0.737748,0.842154
0.674657,0.733551,0.737674,0.84207
0.674252,0.733483,0.737601,0.841986
0.673847,0.733414,0.737527,0.841902
0.673443,0.733346,0.737453,0.841818
0.673039,0.733277,0.737379,0.841733
0.672635,0.733208,0.737306,0.841649
0.672232,0.73314,0.737232,0.841565
0.671828,0.733071,0.737158,0.841481
0.671425,0.733003,0.737084,0.841397
0.671023,0.732934,0.737011,0.841313
0.67062,0.732866,0.736937,0.841228
0.670218,0.732797,0.736863,0.841144
0.669815,0.732729,0.73679,0.84106
0.669414,0.73266,0.736716,0.840976
0.669012,0.732592,0.736642,0.840892
0.668611,0.732523,0.736569,0.840808
0.66821,0.732455,0.736495,0.840724
0.667809,0.732386,0.736421,0.84064
0.667408,0.732318,0.736348,0.840556
0.667008,0.732249,0.736274,0.840472
0.666607,0.732181,0.7362,0.840388
0.666207,0.732113,0.736127,0.840304
0.665808,0.732044,0.736053,0.84022
0.665408,0.731976,0.73598,0.840136
0.665009,0.731907,0.735906,0.840051
0.66461,0.731839,0.735832,0.839967
0.664211,0.73177,0.735759,0.839883
0.663813,0.731702,0.735685,0.839799
0.663415,0.731634,0.735612,0.839716
0.663017,0.731565,0.735538,0.839632
0.662619,0.731497,0.735465,0.839548
0.662221,0.731428,0.735391,0.839464
0.661824,0.73136,0.735317,0.83938
0.661427,0.731292,0.735244,0.839296
0.66103,0.731223,0.73517,0.839212
0.660634,0.731155,0.735097,0.839128
0.660237,0.731087,0.735023,0.839044
0.659841,0.731018,0.73495,0.83896
0.659445,0.73095,0.734876,0.838876
0.65905,0.730882,0.734803,0.838792
0.658654,0.730813,0.734729,0.838708
0.658259,0.730745,0.734656,0.838625
0.657864,0.730677,0.734582,0.838541
0.657469,0.730608,0.734509,0.838457
0.657075,0.73054,0.734436,0.838373
0.656681,0.730472,0.734362,0.838289
0.656287,0.730403,0.734289,0.838205
0.655893,0.730335,0.734215,0.838121
0.6555,0.730267,0.734142,0.838038
0.655106,0.730199,0.734068,0.837954
0.654713,0.73013,0.733995,0.83787
0.65432,0.730062,0.733922,0.837786
0.653928,0.729994,0.733848,0.837703
0.653536,0.729926,0.733775,0.837619
0.653143,0.729857,0.733701,0.837535
0.652752,0.729789,0.733628,0.837451
0.65236,0.729721,0.733555,0.837367
0.651969,0.729653,0.733481,0.837284
0.651577,0.729584,0.733408,0.8372
0.651512,0.729516,0.733335,0.837116
0.651447,0.729448,0.733261,0.837033
0.651382,0.72938,0.733188,0.836949
0.651317,0.729312,0.733115,0.836865
0.651252,0.729243,0.733041,0.836782
0.651187,0.729175,0.732968,0.836698
0.651122,0.729107,0.732895,0.836614
0.651056,0.729039,0.732821,0.83653
0.650991,0.728971,0.732748,0.836447
0.650926,0.728903,0.732675,0.836363
0.650861,0.728834,0.732602,0.83628
0.650796,0.728766,0.732528,0.836196
0.650731,0.728698,0.732455,0.836112
0.650666,0.72863,0.732382,0.836029
0.650601,0.728562,0.732309,0.835945
0.650536,0.728494,0.732235,0.835862
0.650471,0.728426,0.732162,0.835778
0.650406,0.728358,0.732089,0.835694
0.650341,0.72829,0.732016,0.835611
0.650276,0.728221,0.731943,0.835527
0.650211,0.728153,0.731869,0.835444
0.650146,0.728085,0.731796,0.83536
0.65008,0.728017,0.731723,0.835277
0.650015,0.727949,0.73165,0.835193
0.64995,0.727881,0.731577,0.83511
0.649885,0.727813,0.731504,0.835026
0.649821,0.727745,0.73143,0.834943
0.649756,0.727677,0.731357,0.834859
0.649691,0.727609,0.731284,0.834776
0.649626,0.727541,0.731211,0.834692
0.649561,0.727473,0.731138,0.834609
0.649496,0.727405,0.731065,0.834525
0.649431,0.727337,0.730992,0.834442
0.649366,0.727269,0.730919,0.834358
0.649301,0.727201,0.730845,0.834275
0.649236,0.727133,0.730772,0.834191
0.649171,0.727065,0.730699,0.834108
0.649106,0.726997,0.730626,0.834025
0.649041,0.726929,0.730553,0.833941
0.648976,0.726861,0.73048,0.833858
0.648911,0.726793,0.730407,0.833774
0.648846,0.726725,0.730334,0.833691
0.648782,0.726657,0.730261,0.833608
0.648717,0.726589,0.730188,0.833524
0.648652,0.726521,0.730115,0.833441
0.648587,0.726453,0.730042,0.833358
0.648522,0.726386,0.729969,0.833274
0.648457,0.726318,0.729896,0.833191
0.648392,0.72625,0.729823,0.833108
0.648328,0.726182,0.72975,0.833024
0.648263,0.726114,0.729677,0.832941
0.648198,0.726046,0.729604,0.832858
0.648133,0.725978,0.729531,0.832774
0.648068,0.72591,0.729458,0.832691
0.648003,0.725843,0.729385,0.832608
0.647939,0.725775,0.729312,0.832525
0.647874,0.725707,0.729239,0.832441
0.647809,0.725639,0.729166,0.832358
0.647744,0.725571,0.729093,0.832275
0.64768,0.725503,0.729021,0.832192
0.647615,0.725435,0.728948,0.832108
0.64755,0.725368,0.728875,0.832025
0.647485,0.7253,0.728802,0.831942
0.64742,0.725232,0.728729,0.831859
0.647356,0.725164,0.728656,0.831776
0.647291,0.725096,0.728583,0.831692
0.647226,0.725029,0.72851,0.831609
0.647162,0.724961,0.728437,0.831526
0.647097,0.724893,0.728365,0.831443
0.647032,0.724825,0.728292,0.83136
0.646967,0.724758,0.728219,0.831277
0.646903,0.72469,0.728146,0.831194
0.646838,0.724622,0.728073,0.83111
0.646773,0.724554,0.728001,0.831027
0.646709,0.724487,0.727928,0.830944
0.646644,0.724419,0.727855,0.830861
0.646579,0.724351,0.727782,0.830778
0.646515,0.724283,0.727709,0.830695
0.64645,0.724216,0.727637,0.830612
0.646385,0.724148,0.727564,0.830529
0.646321,0.72408,0.727491,0.830446
0.646256,0.724013,0.727418,0.830363
0.646191,0.723945,0.727346,0.83028
0.646127,0.723877,0.727273,0.830197
0.646062,0.72381,0.7272,0.830114
0.645998,0.723742,0.727127,0.830031
0.645933,0.723674,0.727055,0.829948
0.645868,0.723607,0.726982,0.829865
0.645804,0.723539,0.726909,0.829782
0.645739,0.723471,0.726837,0.829699
0.645675,0.723404,0.726764,0.829616
0.64561,0.723336,0.726691,0.829533
0.645546,0.723268,0.726619,0.82945
0.645481,0.723201,0.726546,0.829367
0.645416,0.723133,0.726473,0.829284
0.645352,0.723066,0.726401,0.829201
0.645287,0.722998,0.726328,0.829118
0.645223,0.72293,0.726255,0.829035
0.645158,0.722863,0.726183,0.828952
0.645094,0.722795,0.72611,0.828869
0.645029,0.722728,0.726037,0.828786
0.644965,0.72266,0.725965,0.828704
0.6449,0.722593,0.725892,0.828621
0.644836,0.722525,0.72582,0.828538
0.644771,0.722457,0.725747,0.828455
0.644707,0.72239,0.725675,0.828372
0.644642,0.722322,0.725602,0.828289
0.644578,0.722255,0.725529,0.828206
0.644514,0.722187,0.725457,0.828124
0.644449,0.72212,0.725384,0.828041
0.644385,0.722052,0.725312,0.827958
0.64432,0.721985,0.725239,0.827875
0.644256,0.721917,0.725167,0.827792
0.644191,0.72185,0.725094,0.82771
0.644127,0.721782,0.725022,0.827627
0.644062,0.721715,0.724949,0.827544
0.643998,0.721647,0.724877,0.827461
0.643934,0.72158,0.724804,0.827379
0.643869,0.721512,0.724732,0.827296
0.643805,0.721445,0.724659,0.827213
0.643741,0.721378,0.724587,0.82713
0.643676,0.72131,0.724514,0.827048
0.643612,0.721243,0.724442,0.826965
0.643547,0.721175,0.724369,0.826882
0.643483,0.721108,0.724297,0.8268
0.643419,0.72104,0.724225,0.826717
0.643354,0.720973,0.724152,0.826634
0.64329,0.720906,0.72408,0.826552
0.643226,0.720838,0.724007,0.826469
0.643161,0.720771,0.723935,0.826386
0.643097,0.720703,0.723863,0.826304
0.643033,0.720636,0.72379,0.826221
0.642968,0.720569,0.723718,0.826138
0.642904,0.720501,0.723645,0.826056
0.64284,0.720434,0.723573,0.825973
0.642776,0.720367,0.723501,0.825891
0.642711,0.720299,0.723428,0.825808
0.642647,0.720232,0.723356,0.825725
0.642583,0.720165,0.723284,0.825643
0.642519,0.720097,0.723211,0.82556
0.642454,0.72003,0.723139,0.825478
0.64239,0.719963,0.723067,0.825395
0.642326,0.719895,0.722994,0.825313
0.642262,0.719828,0.722922,0.82523
0.642197,0.719761,0.72285,0.825148
0.642133,0.719693,0.722778,0.825065
0.642069,0.719626,0.722705,0.824983
0.642005,0.719559,0.722633,0.8249
0.64194,0.719492,0.722561,0.824818
0.641876,0.719424,0.722488,0.824735
0.641812,0.719357,0.722416,0.824653
0.641748,0.71929,0.722344,0.82457
0.641684,0.719223,0.722272,0.824488
0.64162,0.719155,0.722199,0.824405
0.641555,0.719088,0.722127,0.824323
0.641491,0.719021,0.722055,0.82424
0.641427,0.718954,0.721983,0.824158
0.641363,0.718886,0.721911,0.824076
0.641299,0.718819,0.721838,0.823993
0.641235,0.718752,0.721766,0.823911
0.641171,0.718685,0.721694,0.823828
0.641106,0.718618,0.721622,0.823746
0.641042,0.718551,0.72155,0.823664
0.640978,0.718483,0.721478,0.823581
0.640914,0.718416,0.721405,0.823499
0.64085,0.718349,0.721333,0.823417
0.640786,0.718282,0.721261,0.823334
0.640722,0.718215,0.721189,0.823252
0.640658,0.718148,0.721117,0.82317
0.640594,0.71808,0.721045,0.823087
0.64053,0.718013,0.720973,0.823005
0.640466,0.717946,0.720901,0.822923
0.640402,0.717879,0.720829,0.82284
0.640338,0.717812,0.720756,0.822758
0.640274,0.717745,0.720684,0.822676
0.640209,0.717678,0.720612,0.822593
0.640145,0.717611,0.72054,0.822511
0.640081,0.717544,0.720468,0.822429
0.640017,0.717476,0.720396,0.822347
0.639953,0.717409,0.720324,0.822264
0.639889,0.717342,0.720252,0.822182
0.639825,0.717275,0.72018,0.8221
0.639761,0.717208,0.720108,0.822018
0.639697,0.717141,0.720036,0.821936
0.639634,0.717074,0.719964,0.821853
0.63957,0.717007,0.719892,0.821771
0.639506,0.71694,0.71982,0.821689
0.639442,0.716873,0.719748,0.821607
0.639378,0.716806,0.719676,0.821525
0.639314,0.716739,0.719604,0.821443
0.63925,0.716672,0.719532,0.82136
0.639186,0.716605,0.71946,0.821278
0.639122,0.716538,0.719388,0.821196
0.639058,0.716471,0.719316,0.821114
0.638994,0.716404,0.719244,0.821032
0.63893,0.716337,0.719172,0.82095
0.638866,0.71627,0.719101,0.820868
0.638802,0.716203,0.719029,0.820786
0.638739,0.716136,0.718957,0.820704
0.638675,0.716069,0.718885,0.820622
0.638611,0.716002,0.718813,0.820539
0.638547,0.715935,0.718741,0.820457
0.638483,0.715868,0.718669,0.820375
0.638419,0.715801,0.718597,0.820293
0.638355,0.715735,0.718525,0.820211
0.638292,0.715668,0.718454,0.820129
0.638228,0.715601,0.718382,0.820047
0.638164,0.715534,0.71831,0.819965
0.6381,0.715467,0.718238,0.819883
0.638036,0.7154,0.718166,0.819801
0.637973,0.715333,0.718094,0.819719
0.637909,0.715266,0.718023,0.819637
0.637845,0.715199,0.717951,0.819555
0.637781,0.715133,0.717879,0.819473
0.637717,0.715066,0.717807,0.819391
0.637654,0.714999,0.717735,0.81931
0.63759,0.714932,0.717664,0.819228
0.637526,0.714865,0.717592,0.819146
0.637462,0.714798,0.71752,0.819064
0.637399,0.714732,0.717448,0.818982
0.637335,0.714665,0.717377,0.8189
0.637271,0.714598,0.717305,0.818818
0.637207,0.714531,0.717233,0.818736
0.637144,0.714464,0.717161,0.818654
0.63708,0.714398,0.71709,0.818572
0.637016,0.714331,0.717018,0.818491
0.636953,0.714264,0.716946,0.818409
0.636889,0.714197,0.716875,0.818327
0.636825,0.71413,0.716803,0.818245
0.636761,0.714064,0.716731,0.818163
0.636698,0.713997,0.71666,0.818081
0.636634,0.71393,0.716588,0.818
0.63657,0.713863,0.716516,0.817918
0.636507,0.713797,0.716445,0.817836
0.636443,0.71373,0.716373,0.817754
0.63638,0.713663,0.716301,0.817672
0.635998,0.713596,0.71623,0.817591
0.635616,0.71353,0.716158,0.817509
0.635235,0.713463,0.716086,0.817427
0.634854,0.713396,0.716015,0.817345
0.634473,0.71333,0.715943,0.817264
0.634092,0.713263,0.715872,0.817182
0.633712,0.713196,0.7158,0.8171
0.633332,0.71313,0.715729,0.817019
0.632952,0.713063,0.715657,0.816937
0.632572,0.712996,0.715585,0.816855
0.632192,0.71293,0.715514,0.816773
0.631813,0.712863,0.715442,0.816692
0.631434,0.712796,0.715371,0.81661
0.631055,0.71273,0.715299,0.816528
0.630677,0.712663,0.715228,0.816447
0.630298,0.712596,0.715156,0.816365
0.62992,0.71253,0.715085,0.816284
0.629542,0.712463,0.715013,0.816202
0.629164,0.712397,0.714942,0.81612
0.628787,0.71233,0.71487,0.816039
0.62841,0.712263,0.714799,0.815957
0.628033,0.712197,0.714727,0.815875
0.627656,0.71213,0.714656,0.815794
0.627279,0.712064,0.714584,0.815712
0.626903,0.711997,0.714513,0.815631
0.626527,0.711931,0.714441,0.815549
0.626151,0.711864,0.71437,0.815468
0.625775,0.711797,0.714298,0.815386
0.6254,0.711731,0.714227,0.815305
0.625025,0.711664,0.714156,0.815223
0.62465,0.711598,0.714084,0.815141
0.624275,0.711531,0.714013,0.81506
0.6239,0.711465,0.713941,0.814978
0.623526,0.711398,0.71387,0.814897
0.623152,0.711332,0.713799,0.814815
0.622778,0.711265,0.713727,0.814734
0.622405,0.711199,0.713656,0.814653
0.622031,0.711132,0.713584,0.814571
0.621658,0.711066,0.713513,0.81449
0.621285,0.710999,0.713442,0.814408
0.620602,0.711644,0.711944,0.814327
0.619919,0.712289,0.710449,0.814245
0.619237,0.712934,0.708957,0.814164
0.618556,0.713581,0.707468,0.814082
0.617876,0.714228,0.705983,0.814001
0.617196,0.714875,0.7045,0.81392
0.616517,0.715523,0.703021,0.813838
0.615839,0.716171,0.701545,0.813757
0.615162,0.716821,0.700072,0.813675
0.614485,0.71747,0.698602,0.813594
0.613809,0.718121,0.697135,0.813513
0.613134,0.718772,0.695671,0.813431
0.61246,0.719423,0.69421,0.81335
0.611786,0.720075,0.692752,0.813269
0.611113,0.720728,0.691298,0.813187
0.610441,0.721381,0.689846,0.813106
0.60977,0.722035,0.688398,0.813025
0.609099,0.72269,0.686952,0.812943
0.608429,0.723345,0.68551,0.812862
0.60776,0.724,0.68407,0.812781
0.607091,0.724656,0.682634,0.8127
0.606424,0.725313,0.6812,0.812618
0.605757,0.725971,0.67977,0.812537
0.60509,0.726629,0.678343,0.812456
0.604425,0.727287,0.676918,0.812375
0.60376,0.727947,0.675497,0.812293
0.603096,0.728606,0.674079,0.812212
0.602433,0.729267,0.672663,0.812131
0.60177,0.729928,0.671251,0.81205
0.601108,0.73059,0.669841,0.811968
0.600447,0.731252,0.668435,0.811887
0.599787,0.731915,0.667031,0.811806
0.599127,0.732578,0.66563,0.811725
0.598468,0.733242,0.664233,0.811644
0.59781,0.733907,0.662838,0.811563
0.597152,0.734572,0.661446,0.811481
0.596495,0.735238,0.660057,0.8114
0.595839,0.735904,0.658671,0.811319
0.595184,0.736571,0.657288,0.811238
0.594529,0.737239,0.655908,0.811157
0.593875,0.737907,0.654531,0.811076
0.593222,0.738576,0.653156,0.810995
0.59257,0.739245,0.651785,0.810914
0.591918,0.739915,0.650416,0.810832
0.591267,0.740586,0.64905,0.810751
0.590616,0.741257,0.647688,0.81067
0.589967,0.741929,0.646328,0.810589
0.589318,0.742602,0.64497,0.810508
0.58867,0.743275,0.643616,0.810427
0.588022,0.743949,0.642265,0.810346
0.587375,0.744623,0.640916,0.810265
0.586729,0.745298,0.63957,0.810184
0.586084,0.745973,0.638227,0.810103
0.585439,0.74665,0.636887,0.810022
0.584795,0.747326,0.63555,0.809941
0.584152,0.748004,0.634215,0.80986
0.584094,0.747934,0.634152,0.809779
0.584035,0.747864,0.653111,0.809698
0.583685,0.747794,0.672637,0.809617
0.583335,0.747724,0.692747,0.809536
0.582985,0.747654,0.713458,0.809455
0.582635,0.747584,0.734788,0.809374
0.582286,0.747514,0.734715,0.809293
0.581936,0.747445,0.734641,0.809212
0.581587,0.747375,0.734568,0.809131
0.581238,0.747305,0.734494,0.80905
0.580889,0.747235,0.734421,0.80897
0.580541,0.747165,0.734347,0.808889
0.580193,0.747095,0.734274,0.808808
0.579845,0.747025,0.734201,0.808727
0.579497,0.746956,0.734127,0.808646
0.579149,0.746886,0.734054,0.808565
0.578802,0.746816,0.73398,0.808484
0.578454,0.746746,0.733907,0.808403
0.578107,0.746676,0.733834,0.808323
0.57776,0.746606,0.73376,0.808242
0.577414,0.746537,0.733687,0.808161
0.577067,0.746467,0.733613,0.80808
0.57701,0.746397,0.73354,0.807999
0.576952,0.746327,0.733467,0.807919
0.576894,0.746258,0.733393,0.807838
0.576837,0.746188,0.73332,0.807757
0.576779,0.746118,0.733247,0.807676
0.576721,0.746048,0.733173,0.807595
0.576664,0.745979,0.7331,0.807515
0.576606,0.745909,0.733027,0.807434
0.576548,0.745839,0.732953,0.807353
0.576491,0.745769,0.73288,0.807272
0.576433,0.7457,0.732807,0.807192
0.576375,0.74563,0.732734,0.807111
0.576318,0.74556,0.73266,0.80703
0.57626,0.74549,0.732587,0.80695
0.576202,0.745421,0.732514,0.806869
0.576145,0.745351,0.732441,0.806788
0.576087,0.745281,0.732367,0.806708
0.57603,0.745212,0.732294,0.806627
0.575972,0.745142,0.732221,0.806546
0.575914,0.745072,0.732148,0.806466
0.575857,0.745003,0.732074,0.806385
0.575799,0.744933,0.732001,0.806304
0.575742,0.744863,0.731928,0.806224
0.575684,0.744794,0.731855,0.806143
0.575626,0.744724,0.731782,0.806062
0.575569,0.744655,0.731708,0.805982
0.575511,0.744585,0.731635,0.805901
0.575454,0.744515,0.731562,0.805821
0.575396,0.744446,0.731489,0.80574
0.575339,0.744376,0.731416,0.805659
0.575281,0.744307,0.731343,0.805579
0.575224,0.744237,0.73127,0.805498
0.575166,0.744167,0.731196,0.805418
0.575109,0.744098,0.731123,0.805337
0.575051,0.744028,0.73105,0.805257
0.574994,0.743959,0.730977,0.805176
0.574936,0.743889,0.730904,0.805096
0.574879,0.74382,0.730831,0.805015
0.574821,0.74375,0.730758,0.804935
0.574764,0.743681,0.730685,0.804854
0.574706,0.743611,0.730612,0.804774
0.574649,0.743542,0.730539,0.804693
0.574591,0.743472,0.730466,0.804613
0.574534,0.743402,0.730392,0.804532
0.574476,0.743333,0.730319,0.804452
0.574419,0.743263,0.730246,0.804371
0.574361,0.743194,0.730173,0.804291
0.574304,0.743125,0.7301,0.80421
0.574247,0.743055,0.730027,0.80413
0.574189,0.742986,0.729954,0.80405
0.574132,0.742916,0.729881,0.803969
0.574074,0.742847,0.729808,0.803889
0.574017,0.742777,0.729735,0.803808
0.573959,0.742708,0.729662,0.803728
0.573902,0.742638,0.729589,0.803648
0.573845,0.742569,0.729516,0.803567
0.573787,0.7425,0.729444,0.803487
0.57373,0.74243,0.729371,0.803407
0.573673,0.742361,0.729298,0.803326
0.573615,0.742291,0.729225,0.803246
0.573558,0.742222,0.729152,0.803166
0.5735,0.742153,0.729079,0.803085
0.573443,0.742083,0.729006,0.803005
0.573386,0.742014,0.728933,0.802925
0.573328,0.741944,0.72886,0.802844
0.573271,0.741875,0.728787,0.802764
0.573214,0.741806,0.728714,0.802684
0.573156,0.741736,0.728642,0.802604
0.573099,0.741667,0.728569,0.802523
0.573042,0.741598,0.728496,0.802443
0.572985,0.741528,0.728423,0.802363
0.572927,0.741459,0.72835,0.802283
0.57287,0.74139,0.728277,0.802202
0.572813,0.74132,0.728204,0.802122
0.572755,0.741251,0.728132,0.802042
0.572698,0.741182,0.728059,0.801962
0.572641,0.741112,0.727986,0.801882
0.572584,0.741043,0.727913,0.801801
0.572526,0.740974,0.72784,0.801721
0.572469,0.740905,0.727768,0.801641
0.572412,0.740835,0.727695,0.801561
0.572355,0.740766,0.727622,0.801481
0.572297,0.740697,0.727549,0.801401
0.57224,0.740628,0.727477,0.80132
0.572183,0.740558,0.727404,0.80124
0.572126,0.740489,0.727331,0.80116
0.572068,0.74042,0.727258,0.80108
0.572011,0.740351,0.727186,0.801
0.571954,0.740281,0.727113,0.80092
0.571897,0.740212,0.72704,0.80084
0.57184,0.740143,0.726968,0.80076
0.571782,0.740074,0.726895,0.80068
0.571725,0.740005,0.726822,0.800599
0.571668,0.739936,0.726749,0.800519
0.571611,0.739866,0.726677,0.800439
0.571554,0.739797,0.726604,0.800359
0.571497,0.739728,0.726531,0.800279
0.571439,0.739659,0.726459,0.800199
0.571382,0.73959,0.726386,0.800119
0.571325,0.739521,0.726314,0.800039
0.571268,0.739451,0.726241,0.799959
0.571211,0.739382,0.726168,0.799879
0.571154,0.739313,0.726096,0.799799
0.571097,0.739244,0.726023,0.799719
0.57104,0.739175,0.72595,0.799639
0.570982,0.739106,0.725878,0.799559
0.570925,0.739037,0.725805,0.799479
0.570868,0.738968,0.725733,0.799399
0.570811,0.738899,0.72566,0.799319
0.570754,0.73883,0.725588,0.79924
0.570697,0.73876,0.725515,0.79916
0.57064,0.738691,0.725442,0.79908
0.570583,0.738622,0.72537,0.799
0.570526,0.738553,0.725297,0.79892
0.570469,0.738484,0.725225,0.79884
0.570412,0.738415,0.725152,0.79876
0.570355,0.738346,0.72508,0.79868
0.570298,0.738277,0.725007,0.7986
0.570241,0.738208,0.724935,0.798521
0.570184,0.738139,0.724862,0.798441
0.570127,0.73807,0.72479,0.798361
0.57007,0.738001,0.724717,0.798281
0.570013,0.737932,0.724645,0.798201
0.569956,0.737863,0.724572,0.798121
0.569899,0.737794,0.7245,0.798042
0.569842,0.737725,0.724427,0.797962
0.569785,0.737656,0.724355,0.797882
0.569728,0.737587,0.724283,0.797802
0.569671,0.737518,0.72421,0.797722
0.569614,0.737449,0.724138,0.797643
0.569557,0.73738,0.724065,0.797563
0.5695,0.737311,0.723993,0.797483
0.569443,0.737243,0.723921,0.797403
0.569386,0.737174,0.723848,0.797324
0.569329,0.737105,0.723776,0.797244
0.569272,0.737036,0.723703,0.797164
0.569215,0.736967,0.723631,0.797084
0.569158,0.736898,0.723559,0.797005
