energy,productivity,fun,hunger
0.876838,0.613388,0.623638,0.787172
0.87675,0.613325,0.623575,0.787093
0.876224,0.613262,0.623513,0.787015
0.875698,0.6132,0.623451,0.786936
0.875173,0.613137,0.623388,0.786857
0.874648,0.613074,0.623326,0.786779
0.874123,0.613012,0.623264,0.7867
0.873599,0.612949,0.623201,0.786621
0.873075,0.612886,0.623139,0.786543
0.872551,0.612824,0.623077,0.786464
0.872027,0.612761,0.623014,0.786385
0.871504,0.612698,0.622952,0.786307
0.870981,0.612636,0.62289,0.786228
0.870459,0.612573,0.622828,0.786149
0.869937,0.612511,0.622765,0.786071
0.869415,0.612448,0.622703,0.785992
0.868893,0.612385,0.622641,0.785913
0.868372,0.612323,0.622578,0.785835
0.867851,0.61226,0.622516,0.785756
0.86733,0.612198,0.622454,0.785678
0.86681,0.612135,0.622392,0.785599
0.86629,0.612073,0.622329,0.785521
0.86577,0.61201,0.622267,0.785442
0.865251,0.611947,0.622205,0.785364
0.864732,0.611885,0.622143,0.785285
0.864213,0.611822,0.622081,0.785206
0.863694,0.61176,0.622018,0.785128
0.863176,0.611697,0.621956,0.785049
0.862658,0.611635,0.621894,0.784971
0.862141,0.611572,0.621832,0.784892
0.861623,0.61151,0.62177,0.784814
0.861106,0.611447,0.621707,0.784735
0.86059,0.611385,0.621645,0.784657
0.860074,0.611322,0.621583,0.784579
0.859558,0.61126,0.621521,0.7845
0.859042,0.611197,0.621459,0.784422
0.858526,0.611135,0.621397,0.784343
0.858011,0.611072,0.621334,0.784265
0.857497,0.61101,0.621272,0.784186
0.856982,0.610948,0.62121,0.784108
0.854326,0.611496,0.618663,0.784029
0.851678,0.612045,0.616127,0.783951
0.849038,0.612594,0.613601,0.783873
0.846406,0.613144,0.611086,0.783794
0.843782,0.613695,0.608581,0.783716
0.841167,0.614246,0.606086,0.783638
0.838559,0.614797,0.603601,0.783559
0.83596,0.615349,0.601126,0.783481
0.833369,0.615901,0.598662,0.783402
0.830786,0.616454,0.596208,0.783324
0.828211,0.617008,0.593764,0.783246
0.825643,0.617561,0.591329,0.783167
0.823084,0.618116,0.588905,0.783089
0.820533,0.618671,0.586491,0.783011
0.817989,0.619226,0.584087,0.782933
0.815454,0.619782,0.581692,0.782854
0.812926,0.620338,0.579307,0.782776
0.810406,0.620895,0.576932,0.782698
0.807894,0.621453,0.574567,0.782619
0.80539,0.62201,0.572212,0.782541
0.802894,0.622569,0.569866,0.782463
0.800405,0.623128,0.56753,0.782385
0.797924,0.623687,0.565203,0.782306
0.795451,0.624247,0.562886,0.782228
0.792985,0.624807,0.560578,0.78215
0.790527,0.625368,0.55828,0.782072
0.788077,0.62593,0.555991,0.781994
0.785634,0.626491,0.553712,0.781915
0.783199,0.627054,0.551442,0.781837
0.780771,0.627617,0.549181,0.781759
0.778351,0.62818,0.54693,0.781681
0.775938,0.628744,0.544688,0.781603
0.773533,0.629309,0.542455,0.781524
0.771135,0.629873,0.540231,0.781446
0.768745,0.630439,0.538016,0.781368
0.766362,0.631005,0.535811,0.78129
0.763986,0.631571,0.533614,0.781212
0.761618,0.632138,0.531426,0.781134
0.759258,0.632706,0.529248,0.781056
0.756904,0.633274,0.527078,0.780978
0.754558,0.633842,0.524917,0.780899
0.752219,0.634411,0.522765,0.780821
0.749887,0.634981,0.520622,0.780743
0.747563,0.635551,0.518488,0.780665
0.745246,0.636121,0.516362,0.780587
0.742936,0.636692,0.514245,0.780509
0.740633,0.637264,0.512137,0.780431
0.738337,0.637836,0.510038,0.780353
0.736048,0.638408,0.507947,0.780275
0.733767,0.638982,0.505864,0.780197
0.731492,0.639555,0.50379,0.780119
0.729225,0.640129,0.501725,0.780041
0.726965,0.640704,0.499668,0.779963
0.724711,0.641279,0.49762,0.779885
0.722465,0.641855,0.49558,0.779807
0.720225,0.642431,0.493548,0.779729
0.717993,0.643008,0.491525,0.779651
0.715767,0.643585,0.48951,0.779573
0.713549,0.644163,0.487503,0.779495
0.711337,0.644741,0.485504,0.779417
0.709132,0.64532,0.483514,0.779339
0.706934,0.645899,0.481532,0.779261
0.704743,0.646479,0.479558,0.779183
0.702558,0.647059,0.477592,0.779105
0.70038,0.64764,0.475634,0.779027
0.69821,0.648221,0.473684,0.77895
0.696045,0.648803,0.471742,0.778872
0.693888,0.649386,0.469808,0.778794
0.691737,0.649969,0.467882,0.778716
0.689593,0.650552,0.465964,0.778638
0.687455,0.651136,0.464053,0.77856
0.685324,0.651721,0.462151,0.778482
0.6832,0.652306,0.460256,0.778404
0.681082,0.652891,0.458369,0.778327
0.678971,0.653477,0.45649,0.778249
0.676867,0.654064,0.454619,0.778171
0.674768,0.654651,0.452755,0.778093
0.672677,0.655239,0.450899,0.778015
0.670592,0.655827,0.449051,0.777938
0.668513,0.656416,0.44721,0.77786
0.666441,0.657005,0.445376,0.777782
0.664375,0.657595,0.44355,0.777704
0.662316,0.658185,0.441732,0.777626
0.660263,0.658776,0.439921,0.777549
0.658216,0.659367,0.438118,0.777471
0.656176,0.659959,0.436321,0.777393
0.654142,0.660552,0.434533,0.777315
0.652114,0.661145,0.432751,0.777238
0.650093,0.661738,0.430977,0.77716
0.648078,0.662332,0.42921,0.777082
0.646069,0.662927,0.427451,0.777005
0.644066,0.663522,0.425698,0.776927
0.64207,0.664117,0.423953,0.776849
0.64008,0.664714,0.422215,0.776771
0.638096,0.66531,0.420484,0.776694
0.636118,0.665908,0.41876,0.776616
0.634146,0.666505,0.417044,0.776538
0.63218,0.667104,0.415334,0.776461
0.630221,0.667703,0.413631,0.776383
0.628267,0.668302,0.411936,0.776305
0.62632,0.668902,0.410247,0.776228
0.624378,0.669502,0.408565,0.77615
0.622443,0.670103,0.40689,0.776073
0.620514,0.670705,0.405222,0.775995
0.61859,0.671307,0.403561,0.775917
0.616673,0.67191,0.401906,0.77584
0.614761,0.672513,0.400259,0.775762
0.612856,0.673116,0.398618,0.775685
0.610956,0.673721,0.396983,0.775607
0.609062,0.674326,0.395356,0.77553
0.607174,0.674931,0.393735,0.775452
0.605292,0.675537,0.392121,0.775374
0.603416,0.676143,0.390514,0.775297
0.601546,0.67675,0.388913,0.775219
0.599681,0.677358,0.387318,0.775142
0.597822,0.677966,0.38573,0.775064
0.595969,0.678574,0.384149,0.774987
0.594122,0.679183,0.382574,0.774909
0.59228,0.679793,0.381006,0.774832
0.590444,0.680403,0.379444,0.774754
0.588614,0.681014,0.377888,0.774677
0.58679,0.681626,0.376339,0.774599
0.584971,0.682237,0.374796,0.774522
0.583158,0.68285,0.37326,0.774444
0.58135,0.683463,0.371729,0.774367
0.579548,0.684076,0.370205,0.77429
0.577752,0.684691,0.368688,0.774212
0.575961,0.685305,0.367176,0.774135
0.574175,0.68592,0.365671,0.774057
0.572396,0.686536,0.364172,0.77398
0.570621,0.687152,0.362679,0.773903
0.568853,0.687769,0.361192,0.773825
0.567089,0.688387,0.359711,0.773748
0.565331,0.689005,0.358237,0.77367
0.563579,0.689623,0.356768,0.773593
0.561832,0.690242,0.355305,0.773516
0.560091,0.690862,0.353849,0.773438
0.558355,0.691482,0.352398,0.773361
0.556624,0.692103,0.350954,0.773284
0.554898,0.692724,0.349515,0.773206
0.553178,0.693346,0.348082,0.773129
0.551464,0.693968,0.346655,0.773052
0.549754,0.694591,0.345234,0.772974
0.54805,0.695215,0.343818,0.772897
0.546352,0.695839,0.342409,0.77282
0.544658,0.696464,0.341005,0.772742
0.54297,0.697089,0.339607,0.772665
0.541287,0.697715,0.338215,0.772588
0.539609,0.698341,0.336828,0.772511
0.537936,0.698968,0.335448,0.772433
0.536269,0.699595,0.334072,0.772356
0.534607,0.700223,0.332703,0.772279
0.532949,0.700852,0.331339,0.772202
0.531297,0.701481,0.32998,0.772125
0.529651,0.702111,0.328628,0.772047
0.528009,0.702741,0.32728,0.77197
0.526372,0.703372,0.325939,0.771893
0.524741,0.704003,0.324602,0.771816
0.523114,0.704635,0.323272,0.771739
0.521492,0.705268,0.321946,0.771661
0.519876,0.705901,0.320627,0.771584
0.518265,0.706535,0.319312,0.771507
0.516658,0.707169,0.318003,0.77143
0.515057,0.707804,0.316699,0.771353
0.51346,0.708439,0.315401,0.771276
0.511869,0.709075,0.314108,0.771198
0.510282,0.709712,0.31282,0.771121
0.5087,0.710349,0.311538,0.771044
0.507123,0.710986,0.310261,0.770967
0.505551,0.711625,0.308989,0.77089
0.503984,0.712263,0.307722,0.770813
0.502422,0.712903,0.306461,0.770736
0.500865,0.713543,0.305204,0.770659
0.499312,0.714183,0.303953,0.770582
0.497765,0.714824,0.302707,0.770505
0.496222,0.715466,0.301466,0.770428
0.494683,0.716108,0.30023,0.770351
0.49315,0.716751,0.298999,0.770274
0.491622,0.717395,0.297773,0.770197
0.490098,0.718039,0.296553,0.77012
0.488578,0.718683,0.295337,0.770042
0.487064,0.719328,0.294126,0.769965
0.485554,0.719974,0.29292,0.769888
0.484049,0.72062,0.291719,0.769812
0.482549,0.721267,0.290524,0.769735
0.481053,0.721915,0.289333,0.769658
0.479562,0.722563,0.288146,0.769581
0.478075,0.723211,0.286965,0.769504
0.476594,0.723861,0.285789,0.769427
0.475116,0.72451,0.284617,0.76935
0.473644,0.725161,0.28345,0.769273
0.472175,0.725812,0.282288,0.769196
0.470712,0.726463,0.281131,0.769119
0.469253,0.727116,0.279978,0.769042
0.467798,0.727768,0.278831,0.768965
0.466348,0.728422,0.277687,0.768888
0.464903,0.729075,0.276549,0.768811
0.463462,0.72973,0.275415,0.768734
0.462025,0.730385,0.274286,0.768658
0.460593,0.731041,0.273162,0.768581
0.459165,0.731697,0.272042,0.768504
0.457742,0.732354,0.270927,0.768427
0.456323,0.733011,0.269816,0.76835
0.454908,0.733669,0.26871,0.768273
0.453498,0.734328,0.267608,0.768197
0.452093,0.734987,0.266511,0.76812
0.450691,0.735647,0.265419,0.768043
0.449294,0.736307,0.26433,0.767966
0.447902,0.736968,0.263247,0.767889
0.446513,0.73763,0.262168,0.767812
0.445129,0.738292,0.261093,0.767736
0.443749,0.738955,0.260022,0.767659
0.442374,0.739618,0.258956,0.767582
0.441003,0.740282,0.257895,0.767505
0.439636,0.740947,0.256838,0.767429
0.438273,0.741612,0.255785,0.767352
0.436915,0.742277,0.254736,0.767275
0.43556,0.742944,0.253692,0.767198
0.43421,0.743611,0.252652,0.767122
0.432864,0.744278,0.251616,0.767045
0.431522,0.744946,0.250584,0.766968
0.430185,0.745615,0.249557,0.766892
0.428851,0.746284,0.248534,0.766815
0.427522,0.746954,0.247515,0.766738
0.426197,0.747625,0.2465,0.766662
0.426154,0.747548,0.246476,0.766585
0.426112,0.747472,0.246451,0.766508
0.426069,0.747396,0.246426,0.766432
0.426026,0.747319,0.246402,0.766355
0.425984,0.747243,0.246377,0.766278
0.425941,0.747167,0.246353,0.766202
0.425899,0.74709,0.246328,0.766125
0.425856,0.747014,0.246303,0.766048
0.425813,0.746937,0.246279,0.765972
0.425771,0.746861,0.246254,0.765895
0.425728,0.746785,0.246229,0.765819
0.425686,0.746708,0.246205,0.765742
0.425643,0.746632,0.24618,0.765666
0.425601,0.746556,0.246156,0.765589
0.425558,0.74648,0.246131,0.765512
0.425516,0.746403,0.246106,0.765436
0.425473,0.746327,0.246082,0.765359
0.42543,0.746251,0.246057,0.765283
0.425388,0.746174,0.246032,0.765206
0.425345,0.746098,0.246008,0.76513
0.425303,0.746022,0.245983,0.765053
0.42526,0.745946,0.245959,0.764977
0.425218,0.745869,0.245934,0.7649
0.425175,0.745793,0.245909,0.764824
0.425133,0.745717,0.245885,0.764747
0.42509,0.745641,0.24586,0.764671
0.425048,0.745565,0.245836,0.764594
0.425005,0.745488,0.245811,0.764518
0.424963,0.745412,0.245787,0.764441
0.42492,0.745336,0.245762,0.764365
0.424878,0.74526,0.245737,0.764288
0.424835,0.745184,0.245713,0.764212
0.424793,0.745107,0.245688,0.764136
0.42475,0.745031,0.245664,0.764059
0.424708,0.744955,0.245639,0.763983
0.424665,0.744879,0.245615,0.763906
0.424623,0.744803,0.24559,0.76383
0.42458,0.744727,0.245565,0.763754
0.424538,0.744651,0.245541,0.763677
0.424495,0.744575,0.245516,0.763601
0.424453,0.744498,0.245492,0.763525
0.424411,0.744422,0.245467,0.763448
0.424368,0.744346,0.245443,0.763372
0.424326,0.74427,0.245418,0.763296
0.424283,0.744194,0.245394,0.763219
0.424241,0.744118,0.245369,0.763143
0.424198,0.744042,0.245345,0.763067
0.424156,0.743966,0.24532,0.76299
0.424114,0.74389,0.245295,0.762914
0.424071,0.743814,0.245271,0.762838
0.424029,0.743738,0.245246,0.762761
0.423986,0.743662,0.245222,0.762685
0.423944,0.743586,0.245197,0.762609
0.423902,0.74351,0.245173,0.762533
0.423859,0.743434,0.245148,0.762456
0.423817,0.743358,0.245124,0.76238
0.423774,0.743282,0.245099,0.762304
0.423732,0.743206,0.245075,0.762228
0.42369,0.74313,0.24505,0.762151
0.423647,0.743054,0.245026,0.762075
0.423605,0.742978,0.245001,0.761999
0.423563,0.742902,0.244977,0.761923
0.42352,0.742826,0.244952,0.761847
0.423478,0.74275,0.244928,0.76177
0.423435,0.742674,0.244903,0.761694
0.423393,0.742599,0.244879,0.761618
0.423351,0.742523,0.244854,0.761542
0.423308,0.742447,0.24483,0.761466
0.423266,0.742371,0.244805,0.76139
0.423224,0.742295,0.244781,0.761313
0.423181,0.742219,0.244756,0.761237
0.423139,0.742143,0.244732,0.761161
0.423097,0.742067,0.244707,0.761085
0.423055,0.741992,0.244683,0.761009
0.423012,0.741916,0.244658,0.760933
0.42297,0.74184,0.244634,0.760857
0.422928,0.741764,0.24461,0.760781
0.422885,0.741688,0.244585,0.760705
0.422843,0.741612,0.244561,0.760629
0.422801,0.741537,0.244536,0.760552
0.422758,0.741461,0.244512,0.760476
0.422716,0.741385,0.244487,0.7604
0.422674,0.741309,0.244463,0.760324
0.422632,0.741234,0.244438,0.760248
0.422589,0.741158,0.244414,0.760172
0.422547,0.741082,0.244389,0.760096
0.422505,0.741006,0.244365,0.76002
0.422463,0.740931,0.244341,0.759944
0.42242,0.740855,0.244316,0.759868
0.422378,0.740779,0.244292,0.759792
0.422336,0.740703,0.244267,0.759716
0.422294,0.740628,0.244243,0.75964
0.422251,0.740552,0.244218,0.759564
0.422209,0.740476,0.244194,0.759488
0.422167,0.740401,0.24417,0.759412
0.422125,0.740325,0.244145,0.759336
0.422083,0.740249,0.244121,0.759261
0.42204,0.740174,0.244096,0.759185
0.421998,0.740098,0.244072,0.759109
0.421956,0.740022,0.244048,0.759033
0.421914,0.739947,0.244023,0.758957
0.421872,0.739871,0.243999,0.758881
0.421829,0.739795,0.243974,0.758805
0.421787,0.73972,0.24395,0.758729
0.421745,0.739644,0.243926,0.758653
0.421703,0.739569,0.243901,0.758577
0.421661,0.739493,0.243877,0.758502
0.421619,0.739418,0.243852,0.758426
0.421576,0.739342,0.243828,0.75835
0.421534,0.739266,0.243804,0.758274
0.421492,0.739191,0.243779,0.758198
0.42145,0.739115,0.243755,0.758122
0.421408,0.73904,0.24373,0.758047
0.421366,0.738964,0.243706,0.757971
0.421323,0.738889,0.243682,0.757895
0.421281,0.738813,0.243657,0.757819
0.421239,0.738738,0.243633,0.757743
0.421197,0.738662,0.243609,0.757668
0.421155,0.738587,0.243584,0.757592
0.421113,0.738511,0.24356,0.757516
0.421071,0.738436,0.243536,0.75744
0.421029,0.73836,0.243511,0.757365
0.420987,0.738285,0.243487,0.757289
0.420944,0.738209,0.243463,0.757213
0.420902,0.738134,0.243438,0.757137
0.42086,0.738058,0.243414,0.757062
0.420818,0.737983,0.243389,0.756986
0.420776,0.737908,0.243365,0.75691
0.420734,0.737832,0.243341,0.756835
0.420692,0.737757,0.243316,0.756759
0.42065,0.737681,0.243292,0.756683
0.420608,0.737606,0.243268,0.756608
0.420566,0.737531,0.243243,0.756532
0.420524,0.737455,0.243219,0.756456
0.420482,0.73738,0.243195,0.756381
0.42044,0.737304,0.243171,0.756305
0.420398,0.737229,0.243146,0.756229
0.420356,0.737154,0.243122,0.756154
0.420313,0.737078,0.243098,0.756078
0.420271,0.737003,0.243073,0.756003
0.420229,0.736928,0.243049,0.755927
0.420187,0.736852,0.243025,0.755851
0.420145,0.736777,0.243,0.755776
0.420103,0.736702,0.242976,0.7557
0.420061,0.736626,0.242952,0.755625
0.420019,0.736551,0.242927,0.755549
0.419977,0.736476,0.242903,0.755474
0.419935,0.736401,0.242879,0.755398
0.419893,0.736325,0.242855,0.755322
0.419851,0.73625,0.24283,0.755247
0.419809,0.736175,0.242806,0.755171
0.419767,0.7361,0.242782,0.755096
0.419725,0.736024,0.242757,0.75502
0.419683,0.735949,0.242733,0.754945
0.419641,0.735874,0.242709,0.754869
0.4196,0.735799,0.242685,0.754794
0.419558,0.735724,0.24266,0.754718
0.419516,0.735648,0.242636,0.754643
0.419474,0.735573,0.242612,0.754567
0.419432,0.735498,0.242588,0.754492
0.41939,0.735423,0.242563,0.754417
0.419348,0.735348,0.242539,0.754341
0.419306,0.735272,0.242515,0.754266
0.419264,0.735197,0.242491,0.75419
0.419222,0.735122,0.242466,0.754115
0.41918,0.735047,0.242442,0.754039
0.419138,0.734972,0.242418,0.753964
0.419096,0.734897,0.242394,0.753889
0.419054,0.734822,0.242369,0.753813
0.419012,0.734747,0.242345,0.753738
0.418971,0.734672,0.242321,0.753662
0.418929,0.734596,0.242297,0.753587
0.418887,0.734521,0.242272,0.753512
0.418845,0.734446,0.242248,0.753436
0.418803,0.734371,0.242224,0.753361
0.418761,0.734296,0.2422,0.753286
0.418719,0.734221,0.242176,0.75321
0.418677,0.734146,0.242151,0.753135
0.418635,0.734071,0.242127,0.75306
0.418594,0.733996,0.242103,0.752984
0.418552,0.733921,0.242079,0.752909
0.41851,0.733846,0.242054,0.752834
0.418468,0.733771,0.24203,0.752759
0.418426,0.733696,0.242006,0.752683
0.418384,0.733621,0.241982,0.752608
0.418343,0.733546,0.241958,0.752533
0.418301,0.733471,0.241933,0.752458
0.418259,0.733396,0.241909,0.752382
0.418217,0.733321,0.241885,0.752307
0.418175,0.733246,0.241861,0.752232
0.418133,0.733171,0.241837,0.752157
0.418092,0.733096,0.241812,0.752081
0.41805,0.733021,0.241788,0.752006
0.418008,0.732946,0.241764,0.751931
0.417966,0.732872,0.24174,0.751856
0.417924,0.732797,0.241716,0.751781
0.417883,0.732722,0.241692,0.751705
0.417841,0.732647,0.241667,0.75163
0.417799,0.732572,0.241643,0.751555
0.417757,0.732497,0.241619,0.75148
0.417715,0.732422,0.241595,0.751405
0.417674,0.732347,0.241571,0.75133
0.417632,0.732273,0.241547,0.751254
0.41759,0.732198,0.241522,0.751179
0.417548,0.732123,0.241498,0.751104
0.417507,0.732048,0.241474,0.751029
0.417465,0.731973,0.24145,0.750954
0.417423,0.731898,0.241426,0.750879
0.417381,0.731824,0.241402,0.750804
0.41734,0.731749,0.241378,0.750729
0.417298,0.731674,0.241353,0.750654
0.417256,0.731599,0.241329,0.750579
0.417214,0.731524,0.241305,0.750504
0.417173,0.73145,0.241281,0.750429
0.417131,0.731375,0.241257,0.750353
0.417089,0.7313,0.241233,0.750278
0.417048,0.731225,0.241209,0.750203
0.417006,0.731151,0.241185,0.750128
0.416964,0.731076,0.24116,0.750053
0.416923,0.731001,0.241136,0.749978
0.416881,0.730927,0.241112,0.749903
0.416839,0.730852,0.241088,0.749828
0.416797,0.730777,0.241064,0.749753
0.416756,0.730702,0.24104,0.749678
0.416714,0.730628,0.241016,0.749603
0.416672,0.730553,0.240992,0.749529
0.416631,0.730478,0.240968,0.749454
0.416589,0.730404,0.240943,0.749379
0.416547,0.730329,0.240919,0.749304
0.416506,0.730255,0.240895,0.749229
0.416464,0.73018,0.240871,0.749154
0.416422,0.730105,0.240847,0.749079
0.416381,0.730031,0.240823,0.749004
0.416339,0.729956,0.240799,0.748929
0.416298,0.729881,0.240775,0.748854
0.416256,0.729807,0.240751,0.748779
0.416214,0.729732,0.240727,0.748704
0.416173,0.729658,0.240703,0.74863
0.416131,0.729583,0.240679,0.748555
0.416089,0.729508,0.240655,0.74848
0.416048,0.729434,0.24063,0.748405
0.416006,0.729359,0.240606,0.74833
0.415965,0.729285,0.240582,0.748255
0.415923,0.72921,0.240558,0.748181
0.415881,0.729136,0.240534,0.748106
0.41584,0.729061,0.24051,0.748031
0.415798,0.728987,0.240486,0.747956
0.415757,0.728912,0.240462,0.747881
0.415715,0.728838,0.240438,0.747806
0.415674,0.728763,0.240414,0.747732
0.415632,0.728689,0.24039,0.747657
0.41559,0.728614,0.240366,0.747582
0.415549,0.72854,0.240342,0.747507
0.415507,0.728465,0.240318,0.747433
0.415466,0.728391,0.240294,0.747358
0.415424,0.728316,0.24027,0.747283
0.415383,0.728242,0.240246,0.747208
0.415341,0.728168,0.240222,0.747134
0.4153,0.728093,0.240198,0.747059
0.415258,0.728019,0.240174,0.746984
0.415217,0.727944,0.24015,0.74691
0.415175,0.72787,0.240126,0.746835
0.415134,0.727796,0.240102,0.74676
0.415092,0.727721,0.240078,0.746686
0.41505,0.727647,0.240054,0.746611
0.415009,0.727572,0.24003,0.746536
0.414967,0.727498,0.240006,0.746462
0.414926,0.727424,0.239982,0.746387
0.414884,0.727349,0.239958,0.746312
0.414843,0.727275,0.239934,0.746238
0.414802,0.727201,0.23991,0.746163
0.41476,0.727126,0.239886,0.746088
0.414719,0.727052,0.239862,0.746014
0.414677,0.726978,0.239838,0.745939
0.414636,0.726903,0.239814,0.745865
0.414594,0.726829,0.23979,0.74579
0.414553,0.726755,0.239766,0.745715
0.414511,0.726681,0.239742,0.745641
0.41447,0.726606,0.239718,0.745566
0.414428,0.726532,0.239694,0.745492
0.414387,0.726458,0.23967,0.745417
0.414345,0.726384,0.239646,0.745343
0.414304,0.726309,0.239622,0.745268
0.414263,0.726235,0.239598,0.745194
0.414221,0.726161,0.239574,0.745119
0.41418,0.726087,0.23955,0.745045
0.414138,0.726012,0.239526,0.74497
0.414097,0.725938,0.239502,0.744896
0.414056,0.725864,0.239478,0.744821
0.414014,0.72579,0.239454,0.744747
0.413973,0.725716,0.23943,0.744672
0.413931,0.725642,0.239406,0.744598
0.41389,0.725567,0.239382,0.744523
0.413849,0.725493,0.239358,0.744449
0.413807,0.725419,0.239334,0.744374
