energy,productivity,fun,hunger
0.690155,0.576083,0.900846,0.469887
0.690086,0.576022,0.900756,0.46984
0.689672,0.575961,0.900666,0.469793
0.689258,0.575899,0.900575,0.469746
0.688844,0.575838,0.900485,0.469699
0.688431,0.575777,0.900395,0.469652
0.688018,0.575716,0.900305,0.469605
0.687605,0.575655,0.900215,0.469558
0.687193,0.575594,0.900125,0.469511
0.68678,0.575533,0.900035,0.469464
0.686368,0.575472,0.899945,0.469417
0.685957,0.575411,0.899855,0.46937
0.685545,0.57535,0.899765,0.469323
0.685134,0.575289,0.899675,0.469276
0.684723,0.575228,0.899585,0.469229
0.684312,0.575167,0.899495,0.469183
0.683901,0.575106,0.899405,0.469136
0.683491,0.575045,0.899315,0.469089
0.683081,0.574984,0.899226,0.469042
0.682671,0.574923,0.899136,0.468995
0.682262,0.574862,0.899046,0.468948
0.681852,0.574801,0.898956,0.468901
0.681443,0.57474,0.898866,0.468854
0.681034,0.574679,0.898776,0.468807
0.680626,0.574618,0.898686,0.46876
0.680217,0.574557,0.898596,0.468714
0.679809,0.574496,0.898506,0.468667
0.677702,0.57501,0.894823,0.46862
0.675601,0.575524,0.891154,0.468573
0.673507,0.576038,0.887501,0.468526
0.67142,0.576553,0.883863,0.468479
0.669338,0.577068,0.880239,0.468432
0.667264,0.577584,0.876631,0.468386
0.665195,0.5781,0.873037,0.468339
0.663133,0.578617,0.869458,0.468292
0.661078,0.579134,0.865893,0.468245
0.659029,0.579652,0.862343,0.468198
0.656986,0.58017,0.858808,0.468151
0.65495,0.580688,0.855287,0.468105
0.652919,0.581207,0.851781,0.468058
0.650896,0.581727,0.848289,0.468011
0.648878,0.582247,0.844811,0.467964
0.646867,0.582767,0.841348,0.467917
0.644862,0.583288,0.837899,0.467871
0.642863,0.58381,0.834464,0.467824
0.64087,0.584331,0.831043,0.467777
0.638883,0.584854,0.827636,0.46773
0.636903,0.585376,0.824243,0.467684
0.634929,0.5859,0.820864,0.467637
0.632961,0.586423,0.817499,0.46759
0.630999,0.586947,0.814147,0.467543
0.629043,0.587472,0.81081,0.467496
0.627093,0.587997,0.807486,0.46745
0.625149,0.588523,0.804175,0.467403
0.623211,0.589049,0.800878,0.467356
0.62128,0.589575,0.797595,0.467309
0.619354,0.590102,0.794325,0.467263
0.617434,0.59063,0.791069,0.467216
0.61552,0.591158,0.787826,0.467169
0.613612,0.591686,0.784596,0.467123
0.61171,0.592215,0.78138,0.467076
0.609814,0.592744,0.778176,0.467029
0.607924,0.593274,0.774986,0.466982
0.60604,0.593804,0.771809,0.466936
0.604161,0.594335,0.768645,0.466889
0.602288,0.594866,0.765494,0.466842
0.600421,0.595398,0.762355,0.466796
0.59856,0.59593,0.75923,0.466749
0.596705,0.596463,0.756117,0.466702
0.594855,0.596996,0.753018,0.466656
0.593011,0.59753,0.749931,0.466609
0.591173,0.598064,0.746856,0.466562
0.589341,0.598598,0.743794,0.466516
0.587514,0.599133,0.740745,0.466469
0.585693,0.599669,0.737708,0.466422
0.583877,0.600205,0.734684,0.466376
0.582068,0.600741,0.731672,0.466329
0.580263,0.601278,0.728673,0.466282
0.578465,0.601816,0.725685,0.466236
0.576672,0.602354,0.72271,0.466189
0.574884,0.602892,0.719747,0.466143
0.573102,0.603431,0.716797,0.466096
0.571326,0.60397,0.713858,0.466049
0.569555,0.60451,0.710932,0.466003
0.567789,0.60505,0.708017,0.465956
0.566029,0.605591,0.705115,0.46591
0.564275,0.606132,0.702224,0.465863
0.562526,0.606674,0.699345,0.465816
0.560782,0.607216,0.696478,0.46577
0.559044,0.607759,0.693623,0.465723
0.557311,0.608302,0.690779,0.465677
0.555583,0.608846,0.687947,0.46563
0.553861,0.60939,0.685127,0.465584
0.552145,0.609935,0.682318,0.465537
0.550433,0.61048,0.679521,0.46549
0.548727,0.611026,0.676735,0.465444
0.547026,0.611572,0.673961,0.465397
0.54533,0.612119,0.671198,0.465351
0.54364,0.612666,0.668446,0.465304
0.541955,0.613213,0.665706,0.465258
0.540275,0.613762,0.662977,0.465211
0.5386,0.61431,0.660259,0.465165
0.536931,0.614859,0.657552,0.465118
0.535266,0.615409,0.654856,0.465072
0.533607,0.615959,0.652172,0.465025
0.531953,0.616509,0.649498,0.464979
0.530304,0.61706,0.646835,0.464932
0.528661,0.617612,0.644184,0.464886
0.527022,0.618164,0.641543,0.464839
0.525388,0.618717,0.638913,0.464793
0.52376,0.61927,0.636293,0.464746
0.522136,0.619823,0.633685,0.4647
0.520518,0.620377,0.631087,0.464653
0.518904,0.620932,0.6285,0.464607
0.517296,0.621487,0.625923,0.46456
0.515692,0.622042,0.623357,0.464514
0.514094,0.622598,0.620802,0.464467
0.5125,0.623155,0.618257,0.464421
0.510912,0.623712,0.615722,0.464375
0.509328,0.624269,0.613198,0.464328
0.507749,0.624827,0.610684,0.464282
0.506176,0.625386,0.60818,0.464235
0.504607,0.625945,0.605687,0.464189
0.503042,0.626504,0.603204,0.464142
0.501483,0.627064,0.600731,0.464096
0.499929,0.627624,0.598268,0.46405
0.498379,0.628185,0.595816,0.464003
0.496834,0.628747,0.593373,0.463957
0.495294,0.629309,0.59094,0.46391
0.493759,0.629871,0.588518,0.463864
0.492228,0.630434,0.586105,0.463818
0.490703,0.630998,0.583702,0.463771
0.489182,0.631562,0.581309,0.463725
0.487665,0.632126,0.578926,0.463678
0.486154,0.632691,0.576553,0.463632
0.484647,0.633257,0.574189,0.463586
0.483144,0.633823,0.571835,0.463539
0.481647,0.634389,0.569491,0.463493
0.480154,0.634956,0.567156,0.463447
0.478666,0.635524,0.564831,0.4634
0.477182,0.636092,0.562516,0.463354
0.475703,0.636661,0.560209,0.463308
0.474228,0.63723,0.557913,0.463261
0.472758,0.637799,0.555626,0.463215
0.471293,0.638369,0.553348,0.463169
0.469832,0.63894,0.551079,0.463122
0.468376,0.639511,0.54882,0.463076
0.466924,0.640083,0.54657,0.46303
0.465476,0.640655,0.544329,0.462983
0.464034,0.641227,0.542098,0.462937
0.462595,0.641801,0.539876,0.462891
0.461161,0.642374,0.537662,0.462845
0.459732,0.642948,0.535458,0.462798
0.458307,0.643523,0.533263,0.462752
0.456886,0.644098,0.531077,0.462706
0.45547,0.644674,0.5289,0.462659
0.454058,0.64525,0.526731,0.462613
0.452651,0.645827,0.524572,0.462567
0.451248,0.646404,0.522421,0.462521
0.449849,0.646982,0.52028,0.462474
0.448455,0.64756,0.518147,0.462428
0.447065,0.648139,0.516022,0.462382
0.445679,0.648718,0.513907,0.462336
0.444297,0.649298,0.5118,0.462289
0.44292,0.649879,0.509702,0.462243
0.441547,0.650459,0.507612,0.462197
0.440179,0.651041,0.505531,0.462151
0.438814,0.651623,0.503459,0.462105
0.437454,0.652205,0.501395,0.462058
0.436098,0.652788,0.499339,0.462012
0.434746,0.653372,0.497292,0.461966
0.433399,0.653956,0.495254,0.46192
0.432055,0.65454,0.493223,0.461874
0.430716,0.655125,0.491201,0.461827
0.429381,0.655711,0.489188,0.461781
0.42805,0.656297,0.487182,0.461735
0.426723,0.656883,0.485185,0.461689
0.4254,0.657471,0.483196,0.461643
0.424082,0.658058,0.481215,0.461597
0.422767,0.658646,0.479242,0.46155
0.421457,0.659235,0.477277,0.461504
0.42015,0.659824,0.475321,0.461458
0.418848,0.660414,0.473372,0.461412
0.41755,0.661004,0.471431,0.461366
0.416255,0.661595,0.469499,0.46132
0.414965,0.662187,0.467574,0.461273
0.413679,0.662778,0.465657,0.461227
0.412397,0.663371,0.463748,0.461181
0.411118,0.663964,0.461847,0.461135
0.409844,0.664557,0.459954,0.461089
0.408574,0.665151,0.458068,0.461043
0.407307,0.665746,0.45619,0.460997
0.406045,0.666341,0.45432,0.460951
0.404786,0.666936,0.452457,0.460905
0.403531,0.667533,0.450602,0.460859
0.40228,0.668129,0.448755,0.460812
0.401033,0.668726,0.446915,0.460766
0.39979,0.669324,0.445083,0.46072
0.398551,0.669922,0.443259,0.460674
0.397316,0.670521,0.441441,0.460628
0.396084,0.67112,0.439632,0.460582
0.394856,0.67172,0.437829,0.460536
0.393633,0.672321,0.436034,0.46049
0.392412,0.672922,0.434247,0.460444
0.391196,0.673523,0.432467,0.460398
0.389983,0.674125,0.430694,0.460352
0.388775,0.674728,0.428928,0.460306
0.38757,0.675331,0.42717,0.46026
0.386368,0.675934,0.425418,0.460214
0.385171,0.676539,0.423674,0.460168
0.383977,0.677143,0.421937,0.460122
0.382786,0.677749,0.420208,0.460076
0.3816,0.678354,0.418485,0.46003
0.380417,0.678961,0.416769,0.459984
0.379238,0.679567,0.415061,0.459938
0.378062,0.680175,0.413359,0.459892
0.37689,0.680783,0.411665,0.459846
0.375722,0.681391,0.409977,0.4598
0.374558,0.682,0.408296,0.459754
0.373397,0.68261,0.406622,0.459708
0.372239,0.68322,0.404955,0.459662
0.371085,0.683831,0.403295,0.459616
0.369935,0.684442,0.401642,0.45957
0.368788,0.685054,0.399995,0.459524
0.367645,0.685666,0.398355,0.459478
0.366506,0.686279,0.396722,0.459432
0.36537,0.686892,0.395096,0.459386
0.364237,0.687506,0.393476,0.45934
0.363108,0.688121,0.391863,0.459294
0.361983,0.688736,0.390257,0.459248
0.36086,0.689351,0.388657,0.459202
0.359742,0.689968,0.387063,0.459156
0.358627,0.690584,0.385477,0.45911
0.357515,0.691202,0.383896,0.459065
0.356407,0.691819,0.382322,0.459019
0.355302,0.692438,0.380755,0.458973
0.354201,0.693057,0.379194,0.458927
0.353103,0.693676,0.37764,0.458881
0.352009,0.694296,0.376091,0.458835
0.350917,0.694917,0.37455,0.458789
0.34983,0.695538,0.373014,0.458743
0.348745,0.69616,0.371485,0.458697
0.347664,0.696782,0.369962,0.458652
0.346587,0.697405,0.368445,0.458606
0.345512,0.698028,0.366935,0.45856
0.344441,0.698652,0.36543,0.458514
0.343374,0.699276,0.363932,0.458468
0.342309,0.699901,0.36244,0.458422
0.341248,0.700527,0.360955,0.458376
0.34019,0.701153,0.359475,0.458331
0.339136,0.70178,0.358001,0.458285
0.338085,0.702407,0.356533,0.458239
0.337037,0.703035,0.355072,0.458193
0.335992,0.703663,0.353616,0.458147
0.334951,0.704292,0.352166,0.458101
0.333912,0.704922,0.350723,0.458056
0.332877,0.705552,0.349285,0.45801
0.331846,0.706182,0.347853,0.457964
0.330817,0.706814,0.346427,0.457918
0.329791,0.707445,0.345007,0.457872
0.328769,0.708078,0.343592,0.457827
0.32775,0.708711,0.342184,0.457781
0.326734,0.709344,0.340781,0.457735
0.325721,0.709978,0.339384,0.457689
0.324712,0.710613,0.337992,0.457644
0.323705,0.711248,0.336607,0.457598
0.322702,0.711884,0.335227,0.457552
0.321702,0.71252,0.333853,0.457506
0.320704,0.713157,0.332484,0.457461
0.31971,0.713794,0.331121,0.457415
0.318719,0.714432,0.329763,0.457369
0.317731,0.715071,0.328411,0.457323
0.316747,0.71571,0.327065,0.457278
0.315765,0.71635,0.325724,0.457232
0.314786,0.71699,0.324389,0.457186
0.31381,0.717631,0.323059,0.45714
0.312837,0.718272,0.321735,0.457095
0.311868,0.718914,0.320416,0.457049
0.310901,0.719557,0.319102,0.457003
0.309937,0.7202,0.317794,0.456958
0.308977,0.720844,0.316491,0.456912
0.308019,0.721488,0.315194,0.456866
0.307064,0.722133,0.313901,0.456821
0.306112,0.722778,0.312615,0.456775
0.305163,0.723424,0.311333,0.456729
0.304218,0.724071,0.310057,0.456684
0.303275,0.724718,0.308786,0.456638
0.302335,0.725366,0.30752,0.456592
0.301397,0.726014,0.306259,0.456547
0.300463,0.726663,0.305003,0.456501
0.299532,0.727313,0.303753,0.456455
0.298603,0.727963,0.302508,0.45641
0.297678,0.728614,0.301268,0.456364
0.296755,0.729265,0.300032,0.456318
0.295835,0.729917,0.298802,0.456273
0.294918,0.730569,0.297578,0.456227
0.294004,0.731222,0.296358,0.456181
0.293093,0.731876,0.295143,0.456136
0.292184,0.73253,0.293933,0.45609
0.291279,0.733185,0.292728,0.456045
0.290376,0.73384,0.291528,0.455999
0.289476,0.734496,0.290332,0.455953
0.288578,0.735152,0.289142,0.455908
0.287684,0.735809,0.287957,0.455862
0.286792,0.736467,0.286776,0.455817
0.285903,0.737125,0.285601,0.455771
0.285017,0.737784,0.28443,0.455725
0.284133,0.738444,0.283264,0.45568
0.283253,0.739104,0.282102,0.455634
0.282375,0.739764,0.280946,0.455589
0.281499,0.740426,0.279794,0.455543
0.280627,0.741087,0.278647,0.455498
0.279757,0.74175,0.277505,0.455452
0.27889,0.742413,0.276367,0.455407
0.278025,0.743076,0.275234,0.455361
0.277164,0.74374,0.274106,0.455315
0.276304,0.744405,0.272982,0.45527
0.275448,0.745071,0.271863,0.455224
0.274594,0.745737,0.270748,0.455179
0.273743,0.746403,0.269638,0.455133
0.272894,0.74707,0.268533,0.455088
0.272049,0.747738,0.267432,0.455042
0.272021,0.747659,0.267405,0.454997
0.271994,0.747579,0.267379,0.454951
0.271967,0.7475,0.267352,0.454906
0.27194,0.747421,0.267325,0.45486
0.271913,0.747342,0.267299,0.454815
0.271885,0.747262,0.267272,0.454769
0.271858,0.747183,0.267245,0.454724
0.271831,0.747104,0.267218,0.454678
0.271804,0.747024,0.267192,0.454633
0.271777,0.746945,0.267165,0.454587
0.271749,0.746866,0.267138,0.454542
0.271722,0.746787,0.267111,0.454497
0.271695,0.746708,0.267085,0.454451
0.271668,0.746628,0.267058,0.454406
0.271641,0.746549,0.267031,0.45436
0.271614,0.74647,0.267005,0.454315
0.271586,0.746391,0.266978,0.454269
0.271559,0.746312,0.266951,0.454224
0.271532,0.746232,0.266925,0.454179
0.271505,0.746153,0.266898,0.454133
0.271478,0.746074,0.266871,0.454088
0.271451,0.745995,0.266844,0.454042
0.271424,0.745916,0.266818,0.453997
0.271396,0.745837,0.266791,0.453951
0.271369,0.745758,0.266764,0.453906
0.271342,0.745679,0.266738,0.453861
0.271315,0.745599,0.266711,0.453815
0.271288,0.74552,0.266684,0.45377
0.271261,0.745441,0.266658,0.453725
0.271234,0.745362,0.266631,0.453679
0.271207,0.745283,0.266604,0.453634
0.271179,0.745204,0.266578,0.453588
0.271152,0.745125,0.266551,0.453543
0.271125,0.745046,0.266524,0.453498
0.271098,0.744967,0.266498,0.453452
0.271071,0.744888,0.266471,0.453407
0.271044,0.744809,0.266444,0.453362
0.271017,0.74473,0.266418,0.453316
0.27099,0.744651,0.266391,0.453271
0.270963,0.744572,0.266365,0.453226
0.270935,0.744493,0.266338,0.45318
0.270908,0.744414,0.266311,0.453135
0.270881,0.744335,0.266285,0.45309
0.270854,0.744256,0.266258,0.453044
0.270827,0.744177,0.266231,0.452999
0.2708,0.744098,0.266205,0.452954
0.270773,0.744019,0.266178,0.452909
0.270746,0.74394,0.266152,0.452863
0.270719,0.743861,0.266125,0.452818
0.270692,0.743783,0.266098,0.452773
0.270665,0.743704,0.266072,0.452727
0.270638,0.743625,0.266045,0.452682
0.27061,0.743546,0.266018,0.452637
0.270583,0.743467,0.265992,0.452592
0.270556,0.743388,0.265965,0.452546
0.270529,0.743309,0.265939,0.452501
0.270502,0.74323,0.265912,0.452456
0.270475,0.743152,0.265886,0.452411
0.270448,0.743073,0.265859,0.452365
0.270421,0.742994,0.265832,0.45232
0.270394,0.742915,0.265806,0.452275
0.270367,0.742836,0.265779,0.45223
0.27034,0.742758,0.265753,0.452184
0.270313,0.742679,0.265726,0.452139
0.270286,0.7426,0.265699,0.452094
0.270259,0.742521,0.265673,0.452049
0.270232,0.742442,0.265646,0.452004
0.270205,0.742364,0.26562,0.451958
0.270178,0.742285,0.265593,0.451913
0.270151,0.742206,0.265567,0.451868
0.270124,0.742128,0.26554,0.451823
0.270097,0.742049,0.265514,0.451778
0.27007,0.74197,0.265487,0.451732
0.270043,0.741891,0.26546,0.451687
0.270016,0.741813,0.265434,0.451642
0.269989,0.741734,0.265407,0.451597
0.269962,0.741655,0.265381,0.451552
0.269935,0.741577,0.265354,0.451507
0.269908,0.741498,0.265328,0.451461
0.269881,0.741419,0.265301,0.451416
0.269854,0.741341,0.265275,0.451371
0.269827,0.741262,0.265248,0.451326
0.2698,0.741183,0.265222,0.451281
0.269773,0.741105,0.265195,0.451236
0.269746,0.741026,0.265169,0.451191
0.269719,0.740948,0.265142,0.451146
0.269692,0.740869,0.265116,0.4511
0.269665,0.74079,0.265089,0.451055
0.269638,0.740712,0.265062,0.45101
0.269611,0.740633,0.265036,0.450965
0.269584,0.740555,0.265009,0.45092
0.269557,0.740476,0.264983,0.450875
0.26953,0.740398,0.264956,0.45083
0.269503,0.740319,0.26493,0.450785
0.269476,0.740241,0.264903,0.45074
0.269449,0.740162,0.264877,0.450695
0.269422,0.740084,0.264851,0.45065
0.269395,0.740005,0.264824,0.450604
0.269368,0.739927,0.264798,0.450559
0.269342,0.739848,0.264771,0.450514
0.269315,0.73977,0.264745,0.450469
0.269288,0.739691,0.264718,0.450424
0.269261,0.739613,0.264692,0.450379
0.269234,0.739534,0.264665,0.450334
0.269207,0.739456,0.264639,0.450289
0.26918,0.739377,0.264612,0.450244
0.269153,0.739299,0.264586,0.450199
0.269126,0.73922,0.264559,0.450154
0.269099,0.739142,0.264533,0.450109
0.269072,0.739064,0.264506,0.450064
0.269045,0.738985,0.26448,0.450019
0.269018,0.738907,0.264454,0.449974
0.268992,0.738828,0.264427,0.449929
0.268965,0.73875,0.264401,0.449884
0.268938,0.738672,0.264374,0.449839
0.268911,0.738593,0.264348,0.449794
0.268884,0.738515,0.264321,0.449749
0.268857,0.738437,0.264295,0.449704
0.26883,0.738358,0.264268,0.449659
0.268803,0.73828,0.264242,0.449614
0.268776,0.738202,0.264216,0.449569
0.26875,0.738123,0.264189,0.449524
0.268723,0.738045,0.264163,0.449479
0.268696,0.737967,0.264136,0.449434
0.268669,0.737889,0.26411,0.449389
0.268642,0.73781,0.264084,0.449344
0.268615,0.737732,0.264057,0.4493
0.268588,0.737654,0.264031,0.449255
0.268562,0.737576,0.264004,0.44921
0.268535,0.737497,0.263978,0.449165
0.268508,0.737419,0.263952,0.44912
0.268481,0.737341,0.263925,0.449075
0.268454,0.737263,0.263899,0.44903
0.268427,0.737184,0.263872,0.448985
0.2684,0.737106,0.263846,0.44894
0.268374,0.737028,0.26382,0.448895
0.268347,0.73695,0.263793,0.44885
0.26832,0.736872,0.263767,0.448806
0.268293,0.736794,0.26374,0.448761
0.268266,0.736715,0.263714,0.448716
0.268239,0.736637,0.263688,0.448671
0.268213,0.736559,0.263661,0.448626
0.268186,0.736481,0.263635,0.448581
0.268159,0.736403,0.263609,0.448536
0.268132,0.736325,0.263582,0.448491
0.268105,0.736247,0.263556,0.448447
0.268079,0.736169,0.26353,0.448402
0.268052,0.73609,0.263503,0.448357
0.268025,0.736012,0.263477,0.448312
0.267998,0.735934,0.26345,0.448267
0.267971,0.735856,0.263424,0.448222
0.267945,0.735778,0.263398,0.448178
0.267918,0.7357,0.263371,0.448133
0.267891,0.735622,0.263345,0.448088
0.267864,0.735544,0.263319,0.448043
0.267837,0.735466,0.263292,0.447998
0.267811,0.735388,0.263266,0.447954
0.267784,0.73531,0.26324,0.447909
0.267757,0.735232,0.263213,0.447864
0.26773,0.735154,0.263187,0.447819
0.267703,0.735076,0.263161,0.447774
0.267677,0.734998,0.263134,0.44773
0.26765,0.73492,0.263108,0.447685
0.267623,0.734842,0.263082,0.44764
0.267596,0.734764,0.263056,0.447595
0.26757,0.734686,0.263029,0.447551
0.267543,0.734608,0.263003,0.447506
0.267516,0.73453,0.262977,0.447461
0.267489,0.734453,0.26295,0.447416
0.267463,0.734375,0.262924,0.447372
0.267436,0.734297,0.262898,0.447327
0.267409,0.734219,0.262871,0.447282
0.267382,0.734141,0.262845,0.447237
0.267356,0.734063,0.262819,0.447193
0.267329,0.733985,0.262793,0.447148
0.267302,0.733907,0.262766,0.447103
0.267275,0.73383,0.26274,0.447059
0.267249,0.733752,0.262714,0.447014
0.267222,0.733674,0.262688,0.446969
0.267195,0.733596,0.262661,0.446924
0.267169,0.733518,0.262635,0.44688
0.267142,0.73344,0.262609,0.446835
0.267115,0.733363,0.262582,0.44679
0.267088,0.733285,0.262556,0.446746
0.267062,0.733207,0.26253,0.446701
0.267035,0.733129,0.262504,0.446656
0.267008,0.733052,0.262477,0.446612
0.266982,0.732974,0.262451,0.446567
0.266955,0.732896,0.262425,0.446522
0.266928,0.732818,0.262399,0.446478
0.266902,0.732741,0.262372,0.446433
0.266875,0.732663,0.262346,0.446388
0.266848,0.732585,0.26232,0.446344
0.266821,0.732507,0.262294,0.446299
0.266795,0.73243,0.262268,0.446255
0.266768,0.732352,0.262241,0.44621
0.266741,0.732274,0.262215,0.446165
0.266715,0.732197,0.262189,0.446121
0.266688,0.732119,0.262163,0.446076
0.266661,0.732041,0.262136,0.446031
0.266635,0.731964,0.26211,0.445987
0.266608,0.731886,0.262084,0.445942
0.266581,0.731808,0.262058,0.445898
0.266555,0.731731,0.262032,0.445853
0.266528,0.731653,0.262005,0.445808
0.266501,0.731576,0.261979,0.445764
0.266475,0.731498,0.261953,0.445719
0.266448,0.73142,0.261927,0.445675
0.266421,0.731343,0.261901,0.44563
0.266395,0.731265,0.261874,0.445586
0.266368,0.731188,0.261848,0.445541
0.266342,0.73111,0.261822,0.445496
0.266315,0.731033,0.261796,0.445452
0.266288,0.730955,0.26177,0.445407
0.266262,0.730877,0.261743,0.445363
0.266235,0.7308,0.261717,0.445318
0.266208,0.730722,0.261691,0.445274
0.266182,0.730645,0.261665,0.445229
0.266155,0.730567,0.261639,0.445185
0.266129,0.73049,0.261613,0.44514
0.266102,0.730412,0.261586,0.445096
0.266075,0.730335,0.26156,0.445051
0.266049,0.730257,0.261534,0.445007
0.266022,0.73018,0.261508,0.444962
0.265996,0.730103,0.261482,0.444918
0.265969,0.730025,0.261456,0.444873
0.265942,0.729948,0.26143,0.444829
0.265916,0.72987,0.261403,0.444784
0.265889,0.729793,0.261377,0.44474
0.265863,0.729715,0.261351,0.444695
0.265836,0.729638,0.261325,0.444651
0.265809,0.729561,0.261299,0.444606
0.265783,0.729483,0.261273,0.444562
0.265756,0.729406,0.261247,0.444517
0.26573,0.729328,0.261221,0.444473
0.265703,0.729251,0.261194,0.444429
0.265677,0.729174,0.261168,0.444384
0.26565,0.729096,0.261142,0.44434
0.265623,0.729019,0.261116,0.444295
