energy,productivity,fun,hunger
0.746118,0.851717,0.662953,0.787014
0.746043,0.85167,0.662887,0.786935
0.745969,0.851624,0.66282,0.786856
0.745894,0.851577,0.662754,0.786778
0.745819,0.851531,0.662688,0.786699
0.745745,0.851484,0.662622,0.78662
0.74567,0.851438,0.662555,0.786542
0.745596,0.851391,0.662489,0.786463
0.745521,0.851345,0.662423,0.786384
0.745447,0.851298,0.662357,0.786306
0.745372,0.851252,0.66229,0.786227
0.745297,0.851205,0.662224,0.786148
0.745223,0.851159,0.662158,0.78607
0.745148,0.851112,0.662092,0.785991
0.745074,0.851066,0.662025,0.785913
0.744999,0.85102,0.661959,0.785834
0.744925,0.850973,0.661893,0.785755
0.74485,0.850927,0.661827,0.785677
0.744776,0.85088,0.661761,0.785598
0.744701,0.850834,0.661695,0.78552
0.744627,0.850787,0.661628,0.785441
0.744553,0.850741,0.661562,0.785363
0.744478,0.850694,0.661496,0.785284
0.744404,0.850648,0.66143,0.785206
0.744329,0.850601,0.661364,0.785127
0.744255,0.850555,0.661298,0.785049
0.74418,0.850509,0.661231,0.78497
0.744106,0.850462,0.661165,0.784892
0.744032,0.850416,0.661099,0.784813
0.743957,0.850369,0.661033,0.784735
0.743883,0.850323,0.660967,0.784656
0.743808,0.850276,0.660901,0.784578
0.743734,0.85023,0.660835,0.784499
0.74366,0.850184,0.660769,0.784421
0.743585,0.850137,0.660703,0.784342
0.743511,0.850091,0.660637,0.784264
0.743436,0.850044,0.660571,0.784185
0.743362,0.849998,0.660504,0.784107
0.743288,0.849951,0.660438,0.784029
0.743213,0.849905,0.660372,0.78395
0.743139,0.849859,0.660306,0.783872
0.743065,0.849812,0.66024,0.783793
0.742991,0.849766,0.660174,0.783715
0.742916,0.849719,0.660108,0.783637
0.742842,0.849673,0.660042,0.783558
0.742768,0.849627,0.659976,0.78348
0.742693,0.84958,0.65991,0.783402
0.742619,0.849534,0.659844,0.783323
0.742545,0.849488,0.659778,0.783245
0.742471,0.849441,0.659712,0.783167
0.742396,0.849395,0.659646,0.783088
0.742322,0.849348,0.65958,0.78301
0.742248,0.849302,0.659514,0.782932
0.742174,0.849256,0.659448,0.782853
0.742099,0.849209,0.659383,0.782775
0.742025,0.849163,0.659317,0.782697
0.741951,0.849117,0.659251,0.782619
0.741877,0.84907,0.659185,0.78254
0.741803,0.849024,0.659119,0.782462
0.741728,0.848978,0.659053,0.782384
0.741654,0.848931,0.658987,0.782306
0.74158,0.848885,0.658921,0.782227
0.741506,0.848838,0.658855,0.782149
0.741432,0.848792,0.658789,0.782071
0.741358,0.848746,0.658723,0.781993
0.741284,0.848699,0.658658,0.781914
0.741209,0.848653,0.658592,0.781836
0.741135,0.848607,0.658526,0.781758
0.741061,0.84856,0.65846,0.78168
0.740987,0.848514,0.658394,0.781602
0.740913,0.848468,0.658328,0.781524
0.740839,0.848421,0.658262,0.781445
0.740765,0.848375,0.658197,0.781367
0.740691,0.848329,0.658131,0.781289
0.740617,0.848283,0.658065,0.781211
0.740543,0.848236,0.657999,0.781133
0.740469,0.84819,0.657933,0.781055
0.740394,0.848144,0.657868,0.780977
0.74032,0.848097,0.657802,0.780899
0.740246,0.848051,0.657736,0.78082
0.740172,0.848005,0.65767,0.780742
0.740098,0.847958,0.657604,0.780664
0.740024,0.847912,0.657539,0.780586
0.73995,0.847866,0.657473,0.780508
0.739876,0.847819,0.657407,0.78043
0.739802,0.847773,0.657341,0.780352
0.739728,0.847727,0.657276,0.780274
0.739654,0.847681,0.65721,0.780196
0.73958,0.847634,0.657144,0.780118
0.739506,0.847588,0.657079,0.78004
0.739433,0.847542,0.657013,0.779962
0.739359,0.847496,0.656947,0.779884
0.739285,0.847449,0.656881,0.779806
0.739211,0.847403,0.656816,0.779728
0.739137,0.847357,0.65675,0.77965
0.739063,0.84731,0.656684,0.779572
0.738989,0.847264,0.656619,0.779494
0.738915,0.847218,0.656553,0.779416
0.738841,0.847172,0.656487,0.779338
0.738767,0.847125,0.656422,0.77926
0.738693,0.847079,0.656356,0.779182
0.73862,0.847033,0.656291,0.779104
0.738546,0.846987,0.656225,0.779027
0.738472,0.84694,0.656159,0.778949
0.738398,0.846894,0.656094,0.778871
0.738324,0.846848,0.656028,0.778793
0.73825,0.846802,0.655962,0.778715
0.738177,0.846755,0.655897,0.778637
0.738103,0.846709,0.655831,0.778559
0.738029,0.846663,0.655766,0.778481
0.737955,0.846617,0.6557,0.778404
0.737881,0.846571,0.655635,0.778326
0.737808,0.846524,0.655569,0.778248
0.737734,0.846478,0.655503,0.77817
0.73766,0.846432,0.655438,0.778092
0.737586,0.846386,0.655372,0.778014
0.737512,0.84634,0.655307,0.777937
0.737439,0.846293,0.655241,0.777859
0.737365,0.846247,0.655176,0.777781
0.737291,0.846201,0.65511,0.777703
0.737217,0.846155,0.655045,0.777626
0.737144,0.846108,0.654979,0.777548
0.73707,0.846062,0.654914,0.77747
0.736996,0.846016,0.654848,0.777392
0.736923,0.84597,0.654783,0.777315
0.736849,0.845924,0.654717,0.777237
0.736775,0.845878,0.654652,0.777159
0.736702,0.845831,0.654586,0.777081
0.736628,0.845785,0.654521,0.777004
0.736554,0.845739,0.654455,0.776926
0.736481,0.845693,0.65439,0.776848
0.736407,0.845647,0.654325,0.776771
0.736333,0.8456,0.654259,0.776693
0.73626,0.845554,0.654194,0.776615
0.736186,0.845508,0.654128,0.776538
0.736112,0.845462,0.654063,0.77646
0.736039,0.845416,0.653997,0.776382
0.735965,0.84537,0.653932,0.776305
0.735892,0.845324,0.653867,0.776227
0.735818,0.845277,0.653801,0.776149
0.735744,0.845231,0.653736,0.776072
0.735671,0.845185,0.65367,0.775994
0.735597,0.845139,0.653605,0.775917
0.735524,0.845093,0.65354,0.775839
0.73545,0.845047,0.653474,0.775761
0.735377,0.845001,0.653409,0.775684
0.735303,0.844954,0.653344,0.775606
0.73523,0.844908,0.653278,0.775529
0.735156,0.844862,0.653213,0.775451
0.735083,0.844816,0.653148,0.775374
0.735009,0.84477,0.653082,0.775296
0.734936,0.844724,0.653017,0.775218
0.734862,0.844678,0.652952,0.775141
0.734789,0.844631,0.652887,0.775063
0.734715,0.844585,0.652821,0.774986
0.734642,0.844539,0.652756,0.774908
0.734568,0.844493,0.652691,0.774831
0.734495,0.844447,0.652625,0.774753
0.734421,0.844401,0.65256,0.774676
0.734348,0.844355,0.652495,0.774599
0.734274,0.844309,0.65243,0.774521
0.734201,0.844263,0.652364,0.774444
0.734127,0.844217,0.652299,0.774366
0.734054,0.84417,0.652234,0.774289
0.733981,0.844124,0.652169,0.774211
0.733907,0.844078,0.652103,0.774134
0.733834,0.844032,0.652038,0.774056
0.733761,0.843986,0.651973,0.773979
0.733687,0.84394,0.651908,0.773902
0.733614,0.843894,0.651843,0.773824
0.73354,0.843848,0.651777,0.773747
0.733467,0.843802,0.651712,0.77367
0.733394,0.843756,0.651647,0.773592
0.73332,0.84371,0.651582,0.773515
0.733247,0.843664,0.651517,0.773437
0.733174,0.843618,0.651452,0.77336
0.7331,0.843571,0.651387,0.773283
0.733027,0.843525,0.651321,0.773205
0.732954,0.843479,0.651256,0.773128
0.73288,0.843433,0.651191,0.773051
0.732807,0.843387,0.651126,0.772973
0.732734,0.843341,0.651061,0.772896
0.732661,0.843295,0.650996,0.772819
0.732587,0.843249,0.650931,0.772742
0.732514,0.843203,0.650866,0.772664
0.732441,0.843157,0.650801,0.772587
0.732368,0.843111,0.650735,0.77251
0.732294,0.843065,0.65067,0.772433
0.732221,0.843019,0.650605,0.772355
0.732148,0.842973,0.65054,0.772278
0.732075,0.842927,0.650475,0.772201
0.732001,0.842881,0.65041,0.772124
0.731928,0.842835,0.650345,0.772046
0.731855,0.842789,0.65028,0.771969
0.731782,0.842743,0.650215,0.771892
0.731709,0.842697,0.65015,0.771815
0.731636,0.842651,0.650085,0.771738
0.731562,0.842605,0.65002,0.77166
0.731489,0.842559,0.649955,0.771583
0.731416,0.842513,0.64989,0.771506
0.731343,0.842467,0.649825,0.771429
0.73127,0.842421,0.64976,0.771352
0.731197,0.842375,0.649695,0.771275
0.731124,0.842329,0.64963,0.771198
0.73105,0.842283,0.649565,0.77112
0.730977,0.842237,0.6495,0.771043
0.730904,0.842191,0.649435,0.770966
0.730831,0.842145,0.64937,0.770889
0.730758,0.842099,0.649305,0.770812
0.730685,0.842053,0.64924,0.770735
0.730612,0.842007,0.649175,0.770658
0.730539,0.841961,0.649111,0.770581
0.730466,0.841915,0.649046,0.770504
0.730393,0.841869,0.648981,0.770427
0.73032,0.841823,0.648916,0.77035
0.730247,0.841777,0.648851,0.770273
0.730174,0.841731,0.648786,0.770196
0.730101,0.841685,0.648721,0.770119
0.730028,0.841639,0.648656,0.770042
0.729955,0.841593,0.648591,0.769965
0.729882,0.841547,0.648527,0.769888
0.729809,0.841501,0.648462,0.769811
0.729736,0.841455,0.648397,0.769734
0.729663,0.84141,0.648332,0.769657
0.72959,0.841364,0.648267,0.76958
0.729517,0.841318,0.648202,0.769503
0.729444,0.841272,0.648138,0.769426
0.729371,0.841226,0.648073,0.769349
0.729298,0.84118,0.648008,0.769272
0.729225,0.841134,0.647943,0.769195
0.729152,0.841088,0.647878,0.769118
0.729079,0.841042,0.647814,0.769041
0.729006,0.840996,0.647749,0.768964
0.728933,0.84095,0.647684,0.768887
0.72886,0.840904,0.647619,0.76881
0.728788,0.840858,0.647554,0.768734
0.728715,0.840813,0.64749,0.768657
0.728642,0.840767,0.647425,0.76858
0.728569,0.840721,0.64736,0.768503
0.728496,0.840675,0.647295,0.768426
0.728423,0.840629,0.647231,0.768349
0.72835,0.840583,0.647166,0.768272
0.728278,0.840537,0.647101,0.768196
0.728205,0.840491,0.647037,0.768119
0.728132,0.840445,0.646972,0.768042
0.728059,0.840399,0.646907,0.767965
0.727986,0.840354,0.646843,0.767888
0.727914,0.840308,0.646778,0.767812
0.727841,0.840262,0.646713,0.767735
0.727768,0.840216,0.646648,0.767658
0.727695,0.84017,0.646584,0.767581
0.727622,0.840124,0.646519,0.767505
0.72755,0.840078,0.646454,0.767428
0.727477,0.840032,0.64639,0.767351
0.727404,0.839987,0.646325,0.767274
0.727331,0.839941,0.646261,0.767198
0.727259,0.839895,0.646196,0.767121
0.727186,0.839849,0.646131,0.767044
0.727113,0.839803,0.646067,0.766967
0.727041,0.839757,0.646002,0.766891
0.726968,0.839711,0.645938,0.766814
0.726895,0.839666,0.645873,0.766737
0.726822,0.83962,0.645808,0.766661
0.72675,0.839574,0.645744,0.766584
0.726677,0.839528,0.645679,0.766507
0.726604,0.839482,0.645615,0.766431
0.726532,0.839436,0.64555,0.766354
0.726459,0.839391,0.645485,0.766277
0.726386,0.839345,0.645421,0.766201
0.726314,0.839299,0.645356,0.766124
0.726241,0.839253,0.645292,0.766048
0.726169,0.839207,0.645227,0.765971
0.726096,0.839162,0.645163,0.765894
0.726023,0.839116,0.645098,0.765818
0.725951,0.83907,0.645034,0.765741
0.725878,0.839024,0.644969,0.765665
0.725806,0.838978,0.644905,0.765588
0.725733,0.838932,0.64484,0.765512
0.72566,0.838887,0.644776,0.765435
0.725588,0.838841,0.644711,0.765358
0.725515,0.838795,0.644647,0.765282
0.725443,0.838749,0.644582,0.765205
0.72537,0.838703,0.644518,0.765129
0.725298,0.838658,0.644453,0.765052
0.725225,0.838612,0.644389,0.764976
0.725153,0.838566,0.644325,0.764899
0.72508,0.83852,0.64426,0.764823
0.725008,0.838475,0.644196,0.764746
0.724935,0.838429,0.644131,0.76467
0.724863,0.838383,0.644067,0.764593
0.72479,0.838337,0.644003,0.764517
0.724718,0.838291,0.643938,0.764441
0.724645,0.838246,0.643874,0.764364
0.724573,0.8382,0.643809,0.764288
0.7245,0.838154,0.643745,0.764211
0.724428,0.838108,0.643681,0.764135
0.724355,0.838063,0.643616,0.764058
0.724283,0.838017,0.643552,0.763982
0.72421,0.837971,0.643487,0.763906
0.724138,0.837925,0.643423,0.763829
0.724066,0.83788,0.643359,0.763753
0.723993,0.837834,0.643294,0.763676
0.723921,0.837788,0.64323,0.7636
0.723848,0.837742,0.643166,0.763524
0.723776,0.837697,0.643101,0.763447
0.723704,0.837651,0.643037,0.763371
0.723631,0.837605,0.642973,0.763295
0.723559,0.837559,0.642909,0.763218
0.723487,0.837514,0.642844,0.763142
0.723414,0.837468,0.64278,0.763066
0.723342,0.837422,0.642716,0.762989
0.72327,0.837377,0.642651,0.762913
0.723197,0.837331,0.642587,0.762837
0.723125,0.837285,0.642523,0.762761
0.723053,0.837239,0.642459,0.762684
0.72298,0.837194,0.642394,0.762608
0.722908,0.837148,0.64233,0.762532
0.722836,0.837102,0.642266,0.762455
0.722763,0.837057,0.642202,0.762379
0.722691,0.837011,0.642138,0.762303
0.722619,0.836965,0.642073,0.762227
0.722547,0.836919,0.642009,0.762151
0.722474,0.836874,0.641945,0.762074
0.722402,0.836828,0.641881,0.761998
0.72233,0.836782,0.641817,0.761922
0.722258,0.836737,0.641752,0.761846
0.722185,0.836691,0.641688,0.76177
0.722113,0.836645,0.641624,0.761693
0.722041,0.8366,0.64156,0.761617
0.721969,0.836554,0.641496,0.761541
0.721897,0.836508,0.641432,0.761465
0.721824,0.836463,0.641367,0.761389
0.721752,0.836417,0.641303,0.761313
0.72168,0.836371,0.641239,0.761236
0.721608,0.836326,0.641175,0.76116
0.721536,0.83628,0.641111,0.761084
0.721464,0.836234,0.641047,0.761008
0.721391,0.836189,0.640983,0.760932
0.721319,0.836143,0.640919,0.760856
0.721247,0.836097,0.640854,0.76078
0.721175,0.836052,0.64079,0.760704
0.721103,0.836006,0.640726,0.760628
0.721031,0.83596,0.640662,0.760552
0.720959,0.835915,0.640598,0.760476
0.720887,0.835869,0.640534,0.760399
0.720814,0.835824,0.64047,0.760323
0.720742,0.835778,0.640406,0.760247
0.72067,0.835732,0.640342,0.760171
0.720598,0.835687,0.640278,0.760095
0.720526,0.835641,0.640214,0.760019
0.720454,0.835595,0.64015,0.759943
0.720382,0.83555,0.640086,0.759867
0.72031,0.835504,0.640022,0.759791
0.720238,0.835459,0.639958,0.759715
0.720166,0.835413,0.639894,0.759639
0.720094,0.835367,0.63983,0.759563
0.720022,0.835322,0.639766,0.759488
0.71995,0.835276,0.639702,0.759412
0.719878,0.83523,0.639638,0.759336
0.719806,0.835185,0.639574,0.75926
0.719734,0.835139,0.63951,0.759184
0.719662,0.835094,0.639446,0.759108
0.71959,0.835048,0.639382,0.759032
0.719518,0.835002,0.639318,0.758956
0.719446,0.834957,0.639254,0.75888
0.719374,0.834911,0.63919,0.758804
0.719302,0.834866,0.639126,0.758728
0.71923,0.83482,0.639062,0.758652
0.719158,0.834775,0.638999,0.758577
0.719087,0.834729,0.638935,0.758501
0.719015,0.834683,0.638871,0.758425
0.718943,0.834638,0.638807,0.758349
0.718871,0.834592,0.638743,0.758273
0.718799,0.834547,0.638679,0.758197
0.718727,0.834501,0.638615,0.758122
0.718655,0.834456,0.638551,0.758046
0.718583,0.83441,0.638488,0.75797
0.718511,0.834364,0.638424,0.757894
0.71844,0.834319,0.63836,0.757818
0.718368,0.834273,0.638296,0.757743
0.718296,0.834228,0.638232,0.757667
0.718224,0.834182,0.638168,0.757591
0.718152,0.834137,0.638105,0.757515
0.71808,0.834091,0.638041,0.75744
0.718009,0.834046,0.637977,0.757364
0.717937,0.834,0.637913,0.757288
0.717865,0.833955,0.637849,0.757212
0.717793,0.833909,0.637786,0.757137
0.717721,0.833864,0.637722,0.757061
0.71765,0.833818,0.637658,0.756985
0.717578,0.833772,0.637594,0.75691
0.717506,0.833727,0.63753,0.756834
0.717434,0.833681,0.637467,0.756758
0.717363,0.833636,0.637403,0.756682
0.717291,0.83359,0.637339,0.756607
0.717219,0.833545,0.637276,0.756531
0.717147,0.833499,0.637212,0.756455
0.717076,0.833454,0.637148,0.75638
0.717004,0.833408,0.637084,0.756304
0.716932,0.833363,0.637021,0.756229
0.716861,0.833317,0.636957,0.756153
0.716789,0.833272,0.636893,0.756077
0.716717,0.833226,0.63683,0.756002
0.716646,0.833181,0.636766,0.755926
0.716574,0.833135,0.636702,0.755851
0.716502,0.83309,0.636639,0.755775
0.716431,0.833044,0.636575,0.755699
0.716359,0.832999,0.636511,0.755624
0.716287,0.832953,0.636448,0.755548
0.716216,0.832908,0.636384,0.755473
0.716144,0.832863,0.63632,0.755397
0.716073,0.832817,0.636257,0.755322
0.716001,0.832772,0.636193,0.755246
0.715929,0.832726,0.636129,0.755171
0.715858,0.832681,0.636066,0.755095
0.715786,0.832635,0.636002,0.75502
0.715715,0.83259,0.635939,0.754944
0.715643,0.832544,0.635875,0.754869
0.715571,0.832499,0.635811,0.754793
0.7155,0.832453,0.635748,0.754718
0.715428,0.832408,0.635684,0.754642
0.715357,0.832362,0.635621,0.754567
0.715285,0.832317,0.635557,0.754491
0.715214,0.832272,0.635494,0.754416
0.715142,0.832226,0.63543,0.75434
0.715071,0.832181,0.635366,0.754265
0.714999,0.832135,0.635303,0.754189
0.714928,0.83209,0.635239,0.754114
0.714856,0.832044,0.635176,0.754039
0.714785,0.831999,0.635112,0.753963
0.714713,0.831954,0.635049,0.753888
0.714642,0.831908,0.634985,0.753812
0.71457,0.831863,0.634922,0.753737
0.714499,0.831817,0.634858,0.753662
0.714427,0.831772,0.634795,0.753586
0.714356,0.831726,0.634731,0.753511
0.714284,0.831681,0.634668,0.753436
0.714213,0.831636,0.634604,0.75336
0.714142,0.83159,0.634541,0.753285
0.71407,0.831545,0.634478,0.75321
0.713999,0.831499,0.634414,0.753134
0.713927,0.831454,0.634351,0.753059
0.713856,0.831409,0.634287,0.752984
0.713785,0.831363,0.634224,0.752908
0.713713,0.831318,0.63416,0.752833
0.713642,0.831272,0.634097,0.752758
0.713571,0.831227,0.634034,0.752682
0.713499,0.831182,0.63397,0.752607
0.713428,0.831136,0.633907,0.752532
0.713356,0.831091,0.633843,0.752457
0.713285,0.831046,0.63378,0.752381
0.713214,0.831,0.633717,0.752306
0.713142,0.830955,0.633653,0.752231
0.713071,0.830909,0.63359,0.752156
0.713,0.830864,0.633526,0.752081
0.712929,0.830819,0.633463,0.752005
0.712857,0.830773,0.6334,0.75193
0.712786,0.830728,0.633336,0.751855
0.712715,0.830683,0.633273,0.75178
0.712643,0.830637,0.63321,0.751705
0.712572,0.830592,0.633146,0.751629
0.712501,0.830547,0.633083,0.751554
0.71243,0.830501,0.63302,0.751479
0.712358,0.830456,0.632957,0.751404
0.712287,0.830411,0.632893,0.751329
0.712216,0.830365,0.63283,0.751254
0.712145,0.83032,0.632767,0.751179
0.712074,0.830275,0.632703,0.751103
0.712002,0.830229,0.63264,0.751028
0.711931,0.830184,0.632577,0.750953
0.71186,0.830139,0.632514,0.750878
0.711789,0.830093,0.63245,0.750803
0.711718,0.830048,0.632387,0.750728
0.711646,0.830003,0.632324,0.750653
0.711575,0.829957,0.632261,0.750578
0.711504,0.829912,0.632197,0.750503
0.711433,0.829867,0.632134,0.750428
0.711362,0.829821,0.632071,0.750353
0.711291,0.829776,0.632008,0.750278
0.71122,0.829731,0.631945,0.750203
0.711148,0.829685,0.631881,0.750128
0.711077,0.82964,0.631818,0.750053
0.711006,0.829595,0.631755,0.749978
0.710935,0.82955,0.631692,0.749903
0.710864,0.829504,0.631629,0.749828
0.710793,0.829459,0.631565,0.749753
0.710722,0.829414,0.631502,0.749678
0.710651,0.829368,0.631439,0.749603
0.71058,0.829323,0.631376,0.749528
0.710509,0.829278,0.631313,0.749453
0.710438,0.829233,0.63125,0.749378
0.710367,0.829187,0.631187,0.749303
0.710295,0.829142,0.631124,0.749228
0.710224,0.829097,0.63106,0.749153
0.710153,0.829052,0.630997,0.749078
0.710082,0.829006,0.630934,0.749003
0.710011,0.828961,0.630871,0.748928
0.70994,0.828916,0.630808,0.748853
0.709869,0.82887,0.630745,0.748778
0.709798,0.828825,0.630682,0.748704
0.709727,0.82878,0.630619,0.748629
0.709656,0.828735,0.630556,0.748554
0.709586,0.828689,0.630493,0.748479
0.709515,0.828644,0.63043,0.748404
0.709444,0.828599,0.630367,0.748329
0.709373,0.828554,0.630304,0.748254
0.709302,0.828508,0.630241,0.74818
0.709231,0.828463,0.630178,0.748105
0.70916,0.828418,0.630114,0.74803
0.709089,0.828373,0.630051,0.747955
0.709018,0.828328,0.629988,0.74788
0.708947,0.828282,0.629925,0.747806
0.708876,0.828237,0.629862,0.747731
0.708805,0.828192,0.629799,0.747656
0.708734,0.828147,0.629737,0.747581
0.708664,0.828101,0.629674,0.747507
0.708593,0.828056,0.629611,0.747432
0.708522,0.828011,0.629548,0.747357
0.708451,0.827966,0.629485,0.747282
0.70838,0.827921,0.629422,0.747208
0.708309,0.827875,0.629359,0.747133
0.708239,0.82783,0.629296,0.747058
0.708168,0.827785,0.629233,0.746983
0.708097,0.82774,0.62917,0.746909
0.708026,0.827695,0.629107,0.746834
0.707955,0.827649,0.629044,0.746759
0.707884,0.827604,0.628981,0.746685
0.707814,0.827559,0.628918,0.74661
0.707743,0.827514,0.628855,0.746535
0.707672,0.827469,0.628793,0.746461
0.707601,0.827424,0.62873,0.746386
0.707531,0.827378,0.628667,0.746311
0.70746,0.827333,0.628604,0.746237
0.707389,0.827288,0.628541,0.746162
0.707318,0.827243,0.628478,0.746088
0.707248,0.827198,0.628415,0.746013
0.707177,0.827153,0.628353,0.745938
0.707106,0.827107,0.62829,0.745864
0.707035,0.827062,0.628227,0.745789
0.706965,0.827017,0.628164,0.745715
0.706894,0.826972,0.628101,0.74564
0.706823,0.826927,0.628038,0.745565
0.706753,0.826882,0.627976,0.745491
0.706682,0.826836,0.627913,0.745416
0.706611,0.826791,0.62785,0.745342
0.706541,0.826746,0.627787,0.745267
0.70647,0.826701,0.627724,0.745193
0.706399,0.826656,0.627662,0.745118
0.706329,0.826611,0.627599,0.745044
0.706258,0.826566,0.627536,0.744969
0.706187,0.826521,0.627473,0.744895
0.706117,0.826475,0.627411,0.74482
0.706046,0.82643,0.627348,0.744746
0.705976,0.826385,0.627285,0.744671
0.705905,0.82634,0.627222,0.744597
0.705834,0.826295,0.62716,0.744522
0.705764,0.82625,0.627097,0.744448
0.705693,0.826205,0.627034,0.744373
0.705623,0.82616,0.626972,0.744299
0.705552,0.826114,0.626909,0.744225
0.705482,0.826069,0.626846,0.74415
