energy,productivity,fun,hunger
0.727813,0.922896,0.657828,0.94496
0.72774,0.922775,0.657762,0.944865
0.727667,0.922653,0.657696,0.944771
0.727594,0.922531,0.657631,0.944676
0.727521,0.922409,0.657565,0.944582
0.727449,0.922287,0.657499,0.944488
0.727376,0.922166,0.657433,0.944393
0.727303,0.922044,0.657368,0.944299
0.72723,0.921922,0.657302,0.944204
0.727158,0.921801,0.657236,0.94411
0.727085,0.921679,0.657171,0.944015
0.727012,0.921557,0.657105,0.943921
0.72694,0.921436,0.657039,0.943827
0.726867,0.921314,0.656973,0.943732
0.726794,0.921192,0.656908,0.943638
0.726722,0.921071,0.656842,0.943543
0.726649,0.920949,0.656776,0.943449
0.726576,0.920827,0.656711,0.943355
0.726504,0.920706,0.656645,0.94326
0.726431,0.920584,0.656579,0.943166
0.726358,0.920463,0.656514,0.943072
0.726286,0.920341,0.656448,0.942977
0.726213,0.92022,0.656382,0.942883
0.72614,0.920098,0.656317,0.942789
0.726068,0.919977,0.656251,0.942695
0.725995,0.919855,0.656185,0.9426
0.725923,0.919734,0.65612,0.942506
0.72585,0.919613,0.656054,0.942412
0.725777,0.919491,0.655989,0.942318
0.725705,0.91937,0.655923,0.942223
0.725632,0.919248,0.655857,0.942129
0.72556,0.919127,0.655792,0.942035
0.725487,0.919006,0.655726,0.941941
0.725415,0.918884,0.655661,0.941847
0.725342,0.918763,0.655595,0.941752
0.72527,0.918642,0.65553,0.941658
0.725197,0.918521,0.655464,0.941564
0.725124,0.918399,0.655398,0.94147
0.725052,0.918278,0.655333,0.941376
0.724979,0.918157,0.655267,0.941282
0.724907,0.918036,0.655202,0.941187
0.724834,0.917915,0.655136,0.941093
0.724762,0.917793,0.655071,0.940999
0.72469,0.917672,0.655005,0.940905
0.724617,0.917551,0.65494,0.940811
0.724545,0.91743,0.654874,0.940717
0.724472,0.917309,0.654809,0.940623
0.7244,0.917188,0.654743,0.940529
0.724327,0.917067,0.654678,0.940435
0.724255,0.916946,0.654612,0.940341
0.724182,0.916825,0.654547,0.940247
0.72411,0.916703,0.654481,0.940153
0.724038,0.916582,0.654416,0.940059
0.723965,0.916461,0.654351,0.939965
0.723893,0.91634,0.654285,0.939871
0.72382,0.91622,0.65422,0.939777
0.723748,0.916099,0.654154,0.939683
0.723676,0.915978,0.654089,0.939589
0.723603,0.915857,0.654023,0.939495
0.723531,0.915736,0.653958,0.939401
0.723459,0.915615,0.653893,0.939307
0.723386,0.915494,0.653827,0.939213
0.723314,0.915373,0.653762,0.939119
0.723241,0.915252,0.653697,0.939025
0.723169,0.915132,0.653631,0.938931
0.723097,0.915011,0.653566,0.938837
0.723025,0.91489,0.6535,0.938743
0.722952,0.914769,0.653435,0.93865
0.72288,0.914648,0.65337,0.938556
0.722808,0.914528,0.653304,0.938462
0.722735,0.914407,0.653239,0.938368
0.722663,0.914286,0.653174,0.938274
0.722591,0.914166,0.653108,0.93818
0.722519,0.914045,0.653043,0.938086
0.722446,0.913924,0.652978,0.937993
0.722374,0.913804,0.652913,0.937899
0.722302,0.913683,0.652847,0.937805
0.72223,0.913562,0.652782,0.937711
0.722157,0.913442,0.652717,0.937618
0.722085,0.913321,0.652651,0.937524
0.722013,0.913201,0.652586,0.93743
0.721941,0.91308,0.652521,0.937336
0.721869,0.912959,0.652456,0.937243
0.721796,0.912839,0.65239,0.937149
0.721724,0.912718,0.652325,0.937055
0.721652,0.912598,0.65226,0.936961
0.72158,0.912477,0.652195,0.936868
0.721508,0.912357,0.652129,0.936774
0.721436,0.912237,0.652064,0.93668
0.721363,0.912116,0.651999,0.936587
0.721291,0.911996,0.651934,0.936493
0.721219,0.911875,0.651869,0.936399
0.721147,0.911755,0.651803,0.936306
0.721075,0.911635,0.651738,0.936212
0.721003,0.911514,0.651673,0.936118
0.720931,0.911394,0.651608,0.936025
0.720859,0.911274,0.651543,0.935931
0.720787,0.911153,0.651478,0.935838
0.720714,0.911033,0.651412,0.935744
0.720642,0.910913,0.651347,0.935651
0.72057,0.910793,0.651282,0.935557
0.720498,0.910672,0.651217,0.935463
0.720426,0.910552,0.651152,0.93537
0.720354,0.910432,0.651087,0.935276
0.720282,0.910312,0.651022,0.935183
0.72021,0.910192,0.650957,0.935089
0.720138,0.910071,0.650892,0.934996
0.720066,0.909951,0.650826,0.934902
0.719994,0.909831,0.650761,0.934809
0.719922,0.909711,0.650696,0.934715
0.71985,0.909591,0.650631,0.934622
0.719778,0.909471,0.650566,0.934528
0.719706,0.909351,0.650501,0.934435
0.719634,0.909231,0.650436,0.934341
0.719562,0.909111,0.650371,0.934248
0.71949,0.908991,0.650306,0.934155
0.719418,0.908871,0.650241,0.934061
0.719346,0.908751,0.650176,0.933968
0.719274,0.908631,0.650111,0.933874
0.719202,0.908511,0.650046,0.933781
0.719131,0.908391,0.649981,0.933688
0.719059,0.908271,0.649916,0.933594
0.718987,0.908151,0.649851,0.933501
0.718915,0.908031,0.649786,0.933408
0.718843,0.907911,0.649721,0.933314
0.718771,0.907791,0.649656,0.933221
0.718699,0.907672,0.649591,0.933128
0.718627,0.907552,0.649526,0.933034
0.718555,0.907432,0.649461,0.932941
0.718484,0.907312,0.649396,0.932848
0.718412,0.907192,0.649331,0.932754
0.71834,0.907073,0.649266,0.932661
0.718268,0.906953,0.649201,0.932568
0.718196,0.906833,0.649136,0.932475
0.718124,0.906714,0.649072,0.932381
0.718053,0.906594,0.649007,0.932288
0.717981,0.906474,0.648942,0.932195
0.717909,0.906354,0.648877,0.932102
0.717837,0.906235,0.648812,0.932008
0.717765,0.906115,0.648747,0.931915
0.717694,0.905996,0.648682,0.931822
0.717622,0.905876,0.648617,0.931729
0.71755,0.905756,0.648552,0.931636
0.717478,0.905637,0.648488,0.931542
0.717407,0.905517,0.648423,0.931449
0.717335,0.905398,0.648358,0.931356
0.717263,0.905278,0.648293,0.931263
0.717191,0.905159,0.648228,0.93117
0.71712,0.905039,0.648163,0.931077
0.717048,0.90492,0.648099,0.930984
0.716976,0.9048,0.648034,0.930891
0.716905,0.904681,0.647969,0.930798
0.716833,0.904561,0.647904,0.930704
0.716761,0.904442,0.647839,0.930611
0.71669,0.904323,0.647775,0.930518
0.716618,0.904203,0.64771,0.930425
0.716546,0.904084,0.647645,0.930332
0.716475,0.903965,0.64758,0.930239
0.716403,0.903845,0.647516,0.930146
0.716331,0.903726,0.647451,0.930053
0.71626,0.903607,0.647386,0.92996
0.716188,0.903487,0.647321,0.929867
0.716116,0.903368,0.647257,0.929774
0.716045,0.903249,0.647192,0.929681
0.715973,0.90313,0.647127,0.929588
0.715902,0.90301,0.647062,0.929495
0.71583,0.902891,0.646998,0.929402
0.715758,0.902772,0.646933,0.929309
0.715687,0.902653,0.646868,0.929216
0.715615,0.902534,0.646804,0.929124
0.715544,0.902414,0.646739,0.929031
0.715472,0.902295,0.646674,0.928938
0.715401,0.902176,0.64661,0.928845
0.715329,0.902057,0.646545,0.928752
0.715258,0.901938,0.64648,0.928659
0.715186,0.901819,0.646416,0.928566
0.715114,0.9017,0.646351,0.928473
0.715043,0.901581,0.646286,0.92838
0.714971,0.901462,0.646222,0.928288
0.7149,0.901343,0.646157,0.928195
0.714828,0.901224,0.646092,0.928102
0.714757,0.901105,0.646028,0.928009
0.714686,0.900986,0.645963,0.927916
0.714614,0.900867,0.645899,0.927824
0.714543,0.900748,0.645834,0.927731
0.714471,0.900629,0.64577,0.927638
0.7144,0.90051,0.645705,0.927545
0.714328,0.900391,0.64564,0.927453
0.714257,0.900273,0.645576,0.92736
0.714185,0.900154,0.645511,0.927267
0.714114,0.900035,0.645447,0.927174
0.714043,0.899916,0.645382,0.927082
0.713971,0.899797,0.645318,0.926989
0.7139,0.899678,0.645253,0.926896
0.713828,0.89956,0.645189,0.926803
0.713757,0.899441,0.645124,0.926711
0.713686,0.899322,0.64506,0.926618
0.713614,0.899204,0.644995,0.926525
0.713543,0.899085,0.644931,0.926433
0.713472,0.898966,0.644866,0.92634
0.7134,0.898847,0.644802,0.926248
0.713329,0.898729,0.644737,0.926155
0.713257,0.89861,0.644673,0.926062
0.713186,0.898492,0.644608,0.92597
0.713115,0.898373,0.644544,0.925877
0.713044,0.898254,0.644479,0.925785
0.712972,0.898136,0.644415,0.925692
0.712901,0.898017,0.64435,0.925599
0.71283,0.897899,0.644286,0.925507
0.712758,0.89778,0.644221,0.925414
0.712687,0.897662,0.644157,0.925322
0.712616,0.897543,0.644093,0.925229
0.712545,0.897425,0.644028,0.925137
0.712473,0.897306,0.643964,0.925044
0.712402,0.897188,0.643899,0.924952
0.712331,0.897069,0.643835,0.924859
0.71226,0.896951,0.643771,0.924767
0.712188,0.896832,0.643706,0.924674
0.712117,0.896714,0.643642,0.924582
0.712046,0.896596,0.643578,0.924489
0.711975,0.896477,0.643513,0.924397
0.711904,0.896359,0.643449,0.924304
0.711832,0.896241,0.643384,0.924212
0.711761,0.896122,0.64332,0.92412
0.71169,0.896004,0.643256,0.924027
0.711619,0.895886,0.643191,0.923935
0.711548,0.895767,0.643127,0.923842
0.711476,0.895649,0.643063,0.92375
0.711405,0.895531,0.642999,0.923658
0.711334,0.895413,0.642934,0.923565
0.711263,0.895295,0.64287,0.923473
0.711192,0.895176,0.642806,0.92338
0.711121,0.895058,0.642741,0.923288
0.71105,0.89494,0.642677,0.923196
0.710979,0.894822,0.642613,0.923103
0.710908,0.894704,0.642549,0.923011
0.710836,0.894586,0.642484,0.922919
0.710765,0.894468,0.64242,0.922827
0.710694,0.894349,0.642356,0.922734
0.710623,0.894231,0.642292,0.922642
0.710552,0.894113,0.642227,0.92255
0.710481,0.893995,0.642163,0.922458
0.71041,0.893877,0.642099,0.922365
0.710339,0.893759,0.642035,0.922273
0.710268,0.893641,0.64197,0.922181
0.710197,0.893523,0.641906,0.922089
0.710126,0.893405,0.641842,0.921996
0.710055,0.893287,0.641778,0.921904
0.709984,0.89317,0.641714,0.921812
0.709913,0.893052,0.64165,0.92172
0.709842,0.892934,0.641585,0.921628
0.709771,0.892816,0.641521,0.921535
0.7097,0.892698,0.641457,0.921443
0.709629,0.89258,0.641393,0.921351
0.709558,0.892462,0.641329,0.921259
0.709487,0.892345,0.641265,0.921167
0.709416,0.892227,0.641201,0.921075
0.709345,0.892109,0.641136,0.920983
0.709274,0.891991,0.641072,0.920891
0.709203,0.891873,0.641008,0.920799
0.709132,0.891756,0.640944,0.920706
0.709061,0.891638,0.64088,0.920614
0.708991,0.89152,0.640816,0.920522
0.70892,0.891403,0.640752,0.92043
0.708849,0.891285,0.640688,0.920338
0.708778,0.891167,0.640624,0.920246
0.708707,0.89105,0.64056,0.920154
0.708636,0.890932,0.640496,0.920062
0.708565,0.890814,0.640432,0.91997
0.708494,0.890697,0.640367,0.919878
0.708424,0.890579,0.640303,0.919786
0.708353,0.890462,0.640239,0.919694
0.708282,0.890344,0.640175,0.919602
0.708211,0.890227,0.640111,0.91951
0.70814,0.890109,0.640047,0.919418
0.708069,0.889992,0.639983,0.919326
0.707999,0.889874,0.639919,0.919234
0.707928,0.889757,0.639855,0.919142
0.707857,0.889639,0.639791,0.919051
0.707786,0.889522,0.639727,0.918959
0.707715,0.889404,0.639663,0.918867
0.707645,0.889287,0.639599,0.918775
0.707574,0.889169,0.639536,0.918683
0.707503,0.889052,0.639472,0.918591
0.707432,0.888935,0.639408,0.918499
0.707362,0.888817,0.639344,0.918407
0.707291,0.8887,0.63928,0.918316
0.70722,0.888583,0.639216,0.918224
0.707149,0.888465,0.639152,0.918132
0.707079,0.888348,0.639088,0.91804
0.707008,0.888231,0.639024,0.917948
0.706937,0.888114,0.63896,0.917857
0.706867,0.887996,0.638896,0.917765
0.706796,0.887879,0.638832,0.917673
0.706725,0.887762,0.638768,0.917581
0.706655,0.887645,0.638705,0.917489
0.706584,0.887528,0.638641,0.917398
0.706513,0.88741,0.638577,0.917306
0.706443,0.887293,0.638513,0.917214
0.706372,0.887176,0.638449,0.917122
0.706301,0.887059,0.638385,0.917031
0.706231,0.886942,0.638321,0.916939
0.70616,0.886825,0.638258,0.916847
0.706089,0.886708,0.638194,0.916756
0.706019,0.886591,0.63813,0.916664
0.705948,0.886474,0.638066,0.916572
0.705878,0.886357,0.638002,0.916481
0.705807,0.88624,0.637939,0.916389
0.705737,0.886123,0.637875,0.916297
0.705666,0.886006,0.637811,0.916206
0.705595,0.885889,0.637747,0.916114
0.705525,0.885772,0.637683,0.916023
0.705454,0.885655,0.63762,0.915931
0.705384,0.885538,0.637556,0.915839
0.705313,0.885421,0.637492,0.915748
0.705243,0.885304,0.637428,0.915656
0.705172,0.885187,0.637365,0.915565
0.705102,0.88507,0.637301,0.915473
0.705031,0.884954,0.637237,0.915382
0.704961,0.884837,0.637173,0.91529
0.70489,0.88472,0.63711,0.915198
0.70482,0.884603,0.637046,0.915107
0.704749,0.884486,0.636982,0.915015
0.704679,0.88437,0.636919,0.914924
0.704608,0.884253,0.636855,0.914832
0.704538,0.884136,0.636791,0.914741
0.704467,0.884019,0.636728,0.914649
0.704397,0.883903,0.636664,0.914558
0.704326,0.883786,0.6366,0.914467
0.704256,0.883669,0.636537,0.914375
0.704186,0.883553,0.636473,0.914284
0.704115,0.883436,0.636409,0.914192
0.704045,0.883319,0.636346,0.914101
0.703974,0.883203,0.636282,0.914009
0.703904,0.883086,0.636218,0.913918
0.703834,0.88297,0.636155,0.913827
0.703763,0.882853,0.636091,0.913735
0.703693,0.882737,0.636028,0.913644
0.703622,0.88262,0.635964,0.913552
0.703552,0.882504,0.6359,0.913461
0.703482,0.882387,0.635837,0.91337
0.703411,0.882271,0.635773,0.913278
0.703341,0.882154,0.63571,0.913187
0.703271,0.882038,0.635646,0.913096
0.7032,0.881921,0.635582,0.913004
0.70313,0.881805,0.635519,0.912913
0.70306,0.881688,0.635455,0.912822
0.702989,0.881572,0.635392,0.912731
0.702919,0.881456,0.635328,0.912639
0.702849,0.881339,0.635265,0.912548
0.702778,0.881223,0.635201,0.912457
0.702708,0.881107,0.635138,0.912366
0.702638,0.88099,0.635074,0.912274
0.702568,0.880874,0.635011,0.912183
0.702497,0.880758,0.634947,0.912092
0.702427,0.880641,0.634884,0.912001
0.702357,0.880525,0.63482,0.911909
0.702287,0.880409,0.634757,0.911818
0.702216,0.880293,0.634693,0.911727
0.702146,0.880176,0.63463,0.911636
0.702076,0.88006,0.634566,0.911545
0.702006,0.879944,0.634503,0.911454
0.701936,0.879828,0.634439,0.911362
0.701865,0.879712,0.634376,0.911271
0.701795,0.879596,0.634313,0.91118
0.701725,0.87948,0.634249,0.911089
0.701655,0.879363,0.634186,0.910998
0.701585,0.879247,0.634122,0.910907
0.701515,0.879131,0.634059,0.910816
0.701444,0.879015,0.633995,0.910725
0.701374,0.878899,0.633932,0.910634
0.701304,0.878783,0.633869,0.910543
0.701234,0.878667,0.633805,0.910452
0.701164,0.878551,0.633742,0.91036
0.701094,0.878435,0.633678,0.910269
0.701024,0.878319,0.633615,0.910178
0.700954,0.878203,0.633552,0.910087
0.700883,0.878087,0.633488,0.909996
0.700813,0.877971,0.633425,0.909905
0.700743,0.877856,0.633362,0.909814
0.700673,0.87774,0.633298,0.909723
0.700603,0.877624,0.633235,0.909632
0.700533,0.877508,0.633172,0.909541
0.700463,0.877392,0.633108,0.909451
0.700393,0.877276,0.633045,0.90936
0.700323,0.87716,0.632982,0.909269
0.700253,0.877045,0.632918,0.909178
0.700183,0.876929,0.632855,0.909087
0.700113,0.876813,0.632792,0.908996
0.700043,0.876697,0.632729,0.908905
0.699973,0.876582,0.632665,0.908814
0.699903,0.876466,0.632602,0.908723
0.699833,0.87635,0.632539,0.908632
0.699763,0.876235,0.632476,0.908541
0.699693,0.876119,0.632412,0.908451
0.699623,0.876003,0.632349,0.90836
0.699553,0.875888,0.632286,0.908269
0.699483,0.875772,0.632223,0.908178
0.699413,0.875656,0.632159,0.908087
0.699343,0.875541,0.632096,0.907997
0.699273,0.875425,0.632033,0.907906
0.699203,0.87531,0.63197,0.907815
0.699133,0.875194,0.631907,0.907724
0.699063,0.875078,0.631843,0.907633
0.698994,0.874963,0.63178,0.907543
0.698924,0.874847,0.631717,0.907452
0.698854,0.874732,0.631654,0.907361
0.698784,0.874617,0.631591,0.90727
0.698714,0.874501,0.631528,0.90718
0.698644,0.874386,0.631464,0.907089
0.698574,0.87427,0.631401,0.906998
0.698504,0.874155,0.631338,0.906908
0.698435,0.874039,0.631275,0.906817
0.698365,0.873924,0.631212,0.906726
0.698295,0.873809,0.631149,0.906635
0.698225,0.873693,0.631086,0.906545
0.698155,0.873578,0.631022,0.906454
0.698085,0.873463,0.630959,0.906363
0.698016,0.873347,0.630896,0.906273
0.697946,0.873232,0.630833,0.906182
0.697876,0.873117,0.63077,0.906092
0.697806,0.873001,0.630707,0.906001
0.697736,0.872886,0.630644,0.90591
0.697667,0.872771,0.630581,0.90582
0.697597,0.872656,0.630518,0.905729
0.697527,0.872541,0.630455,0.905639
0.697457,0.872425,0.630392,0.905548
0.697388,0.87231,0.630329,0.905458
0.697318,0.872195,0.630266,0.905367
0.697248,0.87208,0.630203,0.905276
0.697178,0.871965,0.63014,0.905186
0.697109,0.87185,0.630077,0.905095
0.697039,0.871735,0.630014,0.905005
0.696969,0.87162,0.629951,0.904914
0.6969,0.871504,0.629888,0.904824
0.69683,0.871389,0.629825,0.904733
0.69676,0.871274,0.629762,0.904643
0.696691,0.871159,0.629699,0.904552
0.696621,0.871044,0.629636,0.904462
0.696551,0.870929,0.629573,0.904372
0.696482,0.870814,0.62951,0.904281
0.696412,0.870699,0.629447,0.904191
0.696342,0.870585,0.629384,0.9041
0.696273,0.87047,0.629321,0.90401
0.696203,0.870355,0.629258,0.903919
0.696133,0.87024,0.629195,0.903829
0.696064,0.870125,0.629132,0.903739
0.695994,0.87001,0.629069,0.903648
0.695925,0.869895,0.629006,0.903558
0.695855,0.86978,0.628943,0.903468
0.695785,0.869666,0.628881,0.903377
0.695716,0.869551,0.628818,0.903287
0.695646,0.869436,0.628755,0.903197
0.695577,0.869321,0.628692,0.903106
0.695507,0.869206,0.628629,0.903016
0.695438,0.869092,0.628566,0.902926
0.695368,0.868977,0.628503,0.902835
0.695298,0.868862,0.62844,0.902745
0.695229,0.868748,0.628378,0.902655
0.695159,0.868633,0.628315,0.902565
0.69509,0.868518,0.628252,0.902474
0.69502,0.868404,0.628189,0.902384
0.694951,0.868289,0.628126,0.902294
0.694881,0.868174,0.628063,0.902204
0.694812,0.86806,0.628001,0.902113
0.694742,0.867945,0.627938,0.902023
0.694673,0.867831,0.627875,0.901933
0.694603,0.867716,0.627812,0.901843
0.694534,0.867601,0.62775,0.901753
0.694465,0.867487,0.627687,0.901662
0.694395,0.867372,0.627624,0.901572
0.694326,0.867258,0.627561,0.901482
0.694256,0.867143,0.627498,0.901392
0.694187,0.867029,0.627436,0.901302
0.694117,0.866914,0.627373,0.901212
0.694048,0.8668,0.62731,0.901122
0.693979,0.866686,0.627247,0.901031
0.693909,0.866571,0.627185,0.900941
0.69384,0.866457,0.627122,0.900851
0.69377,0.866342,0.627059,0.900761
0.693701,0.866228,0.626997,0.900671
0.693632,0.866114,0.626934,0.900581
0.693562,0.865999,0.626871,0.900491
0.693493,0.865885,0.626809,0.900401
0.693424,0.865771,0.626746,0.900311
0.693354,0.865656,0.626683,0.900221
0.693285,0.865542,0.626621,0.900131
0.693216,0.865428,0.626558,0.900041
0.693146,0.865314,0.626495,0.899951
0.693077,0.865199,0.626433,0.899861
0.693008,0.865085,0.62637,0.899771
0.692938,0.864971,0.626307,0.899681
0.692869,0.864857,0.626245,0.899591
0.6928,0.864743,0.626182,0.899501
0.69273,0.864628,0.626119,0.899411
0.692661,0.864514,0.626057,0.899321
0.692592,0.8644,0.625994,0.899231
0.692523,0.864286,0.625932,0.899141
0.692453,0.864172,0.625869,0.899051
0.692384,0.864058,0.625806,0.898961
0.692315,0.863944,0.625744,0.898871
0.692246,0.86383,0.625681,0.898782
0.692177,0.863716,0.625619,0.898692
0.692107,0.863602,0.625556,0.898602
0.692038,0.863488,0.625494,0.898512
0.691969,0.863374,0.625431,0.898422
0.6919,0.86326,0.625368,0.898332
0.69183,0.863146,0.625306,0.898242
0.691761,0.863032,0.625243,0.898153
0.691692,0.862918,0.625181,0.898063
0.691623,0.862804,0.625118,0.897973
0.691554,0.86269,0.625056,0.897883
0.691485,0.862576,0.624993,0.897793
0.691415,0.862462,0.624931,0.897704
0.691346,0.862349,0.624868,0.897614
0.691277,0.862235,0.624806,0.897524
0.691208,0.862121,0.624743,0.897434
0.691139,0.862007,0.624681,0.897345
0.69107,0.861893,0.624618,0.897255
0.691001,0.86178,0.624556,0.897165
0.690932,0.861666,0.624494,0.897075
0.690863,0.861552,0.624431,0.896986
0.690793,0.861438,0.624369,0.896896
0.690724,0.861325,0.624306,0.896806
0.690655,0.861211,0.624244,0.896717
0.690586,0.861097,0.624181,0.896627
0.690517,0.860983,0.624119,0.896537
0.690448,0.86087,0.624057,0.896448
0.690379,0.860756,0.623994,0.896358
0.69031,0.860643,0.623932,0.896268
0.690241,0.860529,0.623869,0.896179
0.690172,0.860415,0.623807,0.896089
0.690103,0.860302,0.623745,0.896
0.690034,0.860188,0.623682,0.89591
0.689965,0.860075,0.62362,0.89582
0.689896,0.859961,0.623557,0.895731
0.689827,0.859848,0.623495,0.895641
0.689758,0.859734,0.623433,0.895552
0.689689,0.859621,0.62337,0.895462
0.68962,0.859507,0.623308,0.895372
0.689551,0.859394,0.623246,0.895283
0.689482,0.85928,0.623183,0.895193
0.689413,0.859167,0.623121,0.895104
0.689344,0.859053,0.623059,0.895014
0.689275,0.85894,0.622996,0.894925
0.689206,0.858827,0.622934,0.894835
0.689137,0.858713,0.622872,0.894746
0.689069,0.8586,0.62281,0.894656
0.689,0.858486,0.622747,0.894567
0.688931,0.858373,0.622685,0.894478
0.688862,0.85826,0.622623,0.894388
0.688793,0.858147,0.62256,0.894299
0.688724,0.858033,0.622498,0.894209
0.688655,0.85792,0.622436,0.89412
0.688586,0.857807,0.622374,0.89403
0.688517,0.857693,0.622312,0.893941
0.688449,0.85758,0.622249,0.893852
0.68838,0.857467,0.622187,0.893762
0.688311,0.857354,0.622125,0.893673
0.688242,0.857241,0.622063,0.893583
0.688173,0.857128,0.622,0.893494
