energy,productivity,fun,hunger
0.838522,0.617336,0.790487,0.756984
0.838438,0.617296,0.81412,0.756909
0.837935,0.617256,0.814039,0.756833
0.837433,0.617215,0.813957,0.756757
0.83693,0.617175,0.813876,0.756681
0.836428,0.617135,0.813795,0.756606
0.835926,0.617095,0.813713,0.75653
0.835425,0.617055,0.813632,0.756455
0.834924,0.617015,0.81355,0.756379
0.834423,0.616974,0.813469,0.756303
0.833922,0.616934,0.813388,0.756228
0.833422,0.616894,0.813306,0.756152
0.832922,0.616854,0.813225,0.756076
0.832422,0.616814,0.813144,0.756001
0.831923,0.616774,0.813062,0.755925
0.831424,0.616734,0.812981,0.75585
0.830925,0.616693,0.8129,0.755774
0.830426,0.616653,0.812819,0.755698
0.829928,0.616613,0.812737,0.755623
0.82943,0.616573,0.812656,0.755547
0.828932,0.616533,0.812575,0.755472
0.828435,0.616493,0.812493,0.755396
0.827938,0.616453,0.812412,0.755321
0.827441,0.616413,0.812331,0.755245
0.826945,0.616372,0.81225,0.75517
0.826862,0.616332,0.812168,0.755094
0.82678,0.616292,0.83645,0.755019
0.826284,0.616252,0.836366,0.754943
0.825788,0.616212,0.836283,0.754868
0.825292,0.616172,0.836199,0.754792
0.824797,0.616132,0.836115,0.754717
0.824302,0.616092,0.836032,0.754641
0.823808,0.616052,0.835948,0.754566
0.823314,0.616012,0.835865,0.75449
0.82282,0.615971,0.835781,0.754415
0.822326,0.615931,0.835697,0.754339
0.821833,0.615891,0.835614,0.754264
0.82134,0.615851,0.83553,0.754188
0.820847,0.615811,0.835447,0.754113
0.820354,0.615771,0.835363,0.754038
0.819862,0.615731,0.83528,0.753962
0.81937,0.615691,0.835196,0.753887
0.819288,0.615651,0.835113,0.753811
0.819207,0.615611,0.86008,0.753736
0.818715,0.615571,0.859994,0.753661
0.818224,0.615531,0.859908,0.753585
0.817733,0.615491,0.859822,0.75351
0.817242,0.615451,0.859736,0.753435
0.816752,0.615411,0.85965,0.753359
0.816262,0.61537,0.859564,0.753284
0.815772,0.61533,0.859478,0.753209
0.815283,0.61529,0.859392,0.753133
0.814794,0.61525,0.859306,0.753058
0.814305,0.61521,0.85922,0.752983
0.813816,0.61517,0.859134,0.752907
0.813328,0.61513,0.859048,0.752832
0.81284,0.61509,0.858962,0.752757
0.812353,0.61505,0.858877,0.752681
0.811865,0.61501,0.858791,0.752606
0.811378,0.61497,0.858705,0.752531
0.811297,0.61493,0.858619,0.752456
0.811216,0.61489,0.884289,0.75238
0.810729,0.61485,0.884201,0.752305
0.810243,0.61481,0.884112,0.75223
0.809757,0.61477,0.884024,0.752155
0.809271,0.61473,0.883935,0.75208
0.808785,0.61469,0.883847,0.752004
0.8083,0.61465,0.883759,0.751929
0.807815,0.61461,0.88367,0.751854
0.80733,0.61457,0.883582,0.751779
0.806846,0.61453,0.883494,0.751704
0.806362,0.61449,0.883405,0.751628
0.805878,0.61445,0.883317,0.751553
0.805395,0.61441,0.883229,0.751478
0.804912,0.61437,0.88314,0.751403
0.804429,0.61433,0.883052,0.751328
0.803946,0.61429,0.882964,0.751253
0.803464,0.61425,0.882875,0.751178
0.802982,0.61421,0.882787,0.751102
0.8025,0.61417,0.882699,0.751027
0.802018,0.61413,0.88261,0.750952
0.801537,0.61409,0.882522,0.750877
0.801457,0.61405,0.882434,0.750802
0.801377,0.61401,0.908816,0.750727
0.800896,0.61397,0.908725,0.750652
0.800416,0.61393,0.908634,0.750577
0.799936,0.61389,0.908543,0.750502
0.799456,0.613851,0.908453,0.750427
0.798976,0.613811,0.908362,0.750352
0.798497,0.613771,0.908271,0.750277
0.798018,0.613731,0.90818,0.750202
0.797539,0.613691,0.908089,0.750127
0.79706,0.613651,0.907998,0.750052
0.796582,0.613611,0.907908,0.749977
0.796104,0.613571,0.907817,0.749902
0.795627,0.613531,0.907726,0.749827
0.795149,0.613491,0.907635,0.749752
0.794672,0.613451,0.907545,0.749677
0.794195,0.613411,0.907454,0.749602
0.794116,0.613371,0.907363,0.749527
0.794037,0.613331,0.93449,0.749452
0.79356,0.613291,0.934397,0.749377
0.793084,0.613252,0.934304,0.749302
0.792608,0.613212,0.93421,0.749227
0.792133,0.613172,0.934117,0.749152
0.791658,0.613132,0.934023,0.749077
0.791183,0.613092,0.93393,0.749002
0.790708,0.613052,0.933837,0.748927
0.790234,0.613012,0.933743,0.748852
0.789759,0.612972,0.93365,0.748778
0.789286,0.612932,0.933556,0.748703
0.788812,0.612892,0.933463,0.748628
0.788339,0.612853,0.93337,0.748553
0.787866,0.612813,0.933276,0.748478
0.787393,0.612773,0.933183,0.748403
0.786921,0.612733,0.93309,0.748328
0.786449,0.612693,0.932996,0.748254
0.785977,0.612653,0.932903,0.748179
0.785505,0.612613,0.93281,0.748104
0.785034,0.612573,0.932717,0.748029
0.784563,0.612534,0.932623,0.747954
0.784092,0.612494,0.93253,0.747879
0.783622,0.612454,0.932437,0.747805
0.783152,0.612414,0.932344,0.74773
0.782682,0.612374,0.93225,0.747655
0.782212,0.612334,0.932157,0.74758
0.781743,0.612294,0.932064,0.747506
0.781274,0.612255,0.931971,0.747431
0.780805,0.612215,0.931877,0.747356
0.780337,0.612175,0.931784,0.747281
0.779869,0.612135,0.931691,0.747207
0.779401,0.612095,0.931598,0.747132
0.778933,0.612055,0.931505,0.747057
0.778466,0.612016,0.931412,0.746983
0.777999,0.611976,0.931318,0.746908
0.777532,0.611936,0.931225,0.746833
0.777066,0.611896,0.931132,0.746758
0.776599,0.611856,0.931039,0.746684
0.776134,0.611816,0.930946,0.746609
0.775668,0.611777,0.930853,0.746534
0.775203,0.611737,0.93076,0.74646
0.774737,0.611697,0.930667,0.746385
0.774273,0.611657,0.930574,0.74631
0.773808,0.611617,0.930481,0.746236
0.773344,0.611578,0.930388,0.746161
0.77288,0.611538,0.930295,0.746087
0.772416,0.611498,0.930201,0.746012
0.771953,0.611458,0.930108,0.745937
0.77149,0.611418,0.930015,0.745863
0.771027,0.611379,0.929922,0.745788
0.770564,0.611339,0.929829,0.745714
0.770102,0.611299,0.929736,0.745639
0.76964,0.611259,0.929643,0.745565
0.769178,0.61122,0.929551,0.74549
0.768717,0.61118,0.929458,0.745415
0.768256,0.61114,0.929365,0.745341
0.768179,0.6111,0.929272,0.745266
0.768102,0.61106,0.957054,0.745192
0.767641,0.611021,0.956958,0.745117
0.767181,0.610981,0.956863,0.745043
0.76672,0.610941,0.956767,0.744968
0.76626,0.610901,0.956671,0.744894
0.765801,0.610862,0.956576,0.744819
0.765341,0.610822,0.95648,0.744745
0.764882,0.610782,0.956384,0.74467
0.764423,0.610742,0.956289,0.744596
0.763964,0.610703,0.956193,0.744521
0.763506,0.610663,0.956098,0.744447
0.763048,0.610623,0.956002,0.744373
0.76259,0.610583,0.955906,0.744298
0.762133,0.610544,0.955811,0.744224
0.761675,0.610504,0.955715,0.744149
0.761219,0.610464,0.95562,0.744075
0.760762,0.610424,0.955524,0.744
0.760305,0.610385,0.955428,0.743926
0.759849,0.610345,0.955333,0.743852
0.759393,0.610305,0.955237,0.743777
0.758938,0.610266,0.955142,0.743703
0.758482,0.610226,0.955046,0.743628
0.758027,0.610186,0.954951,0.743554
0.757573,0.610146,0.954855,0.74348
0.757118,0.610107,0.95476,0.743405
0.756664,0.610067,0.954664,0.743331
0.756588,0.610027,0.954569,0.743257
0.756513,0.609988,0.983108,0.743182
0.756059,0.609948,0.983009,0.743108
0.755605,0.609908,0.982911,0.743034
0.755152,0.609869,0.982813,0.742959
0.754699,0.609829,0.982714,0.742885
0.754246,0.609789,0.982616,0.742811
0.753793,0.609749,0.982518,0.742737
0.753341,0.60971,0.98242,0.742662
0.752889,0.60967,0.982321,0.742588
0.752438,0.60963,0.982223,0.742514
0.751986,0.609591,0.982125,0.74244
0.751535,0.609551,0.982027,0.742365
0.751084,0.609511,0.981929,0.742291
0.750633,0.609472,0.98183,0.742217
0.750183,0.609432,0.981732,0.742143
0.749733,0.609392,0.981634,0.742068
0.749283,0.609353,0.981536,0.741994
0.748834,0.609313,0.981438,0.74192
0.748384,0.609273,0.98134,0.741846
0.747935,0.609234,0.981241,0.741772
0.747487,0.609194,0.981143,0.741697
0.747038,0.609155,0.981045,0.741623
0.74659,0.609115,0.980947,0.741549
0.746142,0.609075,0.980849,0.741475
0.745695,0.609036,0.980751,0.741401
0.745247,0.608996,0.980653,0.741327
0.7448,0.608956,0.980555,0.741253
0.744353,0.608917,0.980457,0.741178
0.743907,0.608877,0.980359,0.741104
0.74346,0.608837,0.980261,0.74103
0.743014,0.608798,0.980163,0.740956
0.742568,0.608758,0.980065,0.740882
0.742123,0.608719,0.979967,0.740808
0.741678,0.608679,0.979869,0.740734
0.741233,0.608639,0.979771,0.74066
0.740788,0.6086,0.979673,0.740586
0.740714,0.60856,0.979575,0.740512
0.74064,0.608521,1,0.740438
0.740196,0.608481,0.9999,0.740364
0.739751,0.608441,0.9998,0.740289
0.739308,0.608402,0.9997,0.740215
0.738864,0.608362,0.9996,0.740141
0.738421,0.608323,0.9995,0.740067
0.737978,0.608283,0.9994,0.739993
0.737535,0.608243,0.9993,0.739919
0.737093,0.608204,0.9992,0.739845
0.73665,0.608164,0.9991,0.739771
0.736208,0.608125,0.999,0.739697
0.735767,0.608085,0.998901,0.739623
0.735325,0.608046,0.998801,0.73955
0.734884,0.608006,0.998701,0.739476
0.734443,0.607966,0.998601,0.739402
0.734003,0.607927,0.998501,0.739328
0.733562,0.607887,0.998401,0.739254
0.733122,0.607848,0.998301,0.73918
0.732682,0.607808,0.998202,0.739106
0.732243,0.607769,0.998102,0.739032
0.731803,0.607729,0.998002,0.738958
0.731364,0.607689,0.997902,0.738884
0.730926,0.60765,0.997802,0.73881
0.730487,0.60761,0.997703,0.738736
0.730049,0.607571,0.997603,0.738663
0.729611,0.607531,0.997503,0.738589
0.729538,0.607492,0.997403,0.738515
0.729465,0.607452,1,0.738441
0.729027,0.607413,0.9999,0.738367
0.72859,0.607373,0.9998,0.738293
0.728153,0.607334,0.9997,0.738219
0.727716,0.607294,0.9996,0.738146
0.727279,0.607255,0.9995,0.738072
0.726843,0.607215,0.9994,0.737998
0.726407,0.607176,0.9993,0.737924
0.725971,0.607136,0.9992,0.73785
0.725536,0.607097,0.9991,0.737777
0.7251,0.607057,0.999,0.737703
0.725028,0.607018,0.998901,0.737629
0.724955,0.606978,1,0.737555
0.72452,0.606939,0.9999,0.737482
0.724086,0.606899,0.9998,0.737408
0.723651,0.60686,0.9997,0.737334
0.723217,0.60682,0.9996,0.73726
0.722783,0.606781,0.9995,0.737187
0.72235,0.606741,0.9994,0.737113
0.721916,0.606702,0.9993,0.737039
0.721483,0.606662,0.9992,0.736966
0.72105,0.606623,0.9991,0.736892
0.720618,0.606583,0.999,0.736818
0.720185,0.606544,0.998901,0.736744
0.719753,0.606504,0.998801,0.736671
0.719321,0.606465,0.998701,0.736597
0.71889,0.606425,0.998601,0.736523
0.718459,0.606386,0.998501,0.73645
0.718028,0.606346,0.998401,0.736376
0.717597,0.606307,0.998301,0.736303
0.717166,0.606267,0.998202,0.736229
0.716736,0.606228,0.998102,0.736155
0.716306,0.606189,0.998002,0.736082
0.715876,0.606149,0.997902,0.736008
0.715447,0.60611,0.997802,0.735934
0.715375,0.60607,0.997703,0.735861
0.715304,0.606031,1,0.735787
0.714874,0.605991,0.9999,0.735714
0.714446,0.605952,0.9998,0.73564
0.714017,0.605912,0.9997,0.735567
0.713589,0.605873,0.9996,0.735493
0.71316,0.605834,0.9995,0.735419
0.712733,0.605794,0.9994,0.735346
0.712305,0.605755,0.9993,0.735272
0.711878,0.605715,0.9992,0.735199
0.711451,0.605676,0.9991,0.735125
0.711024,0.605636,0.999,0.735052
0.710597,0.605597,0.998901,0.734978
0.710171,0.605558,0.998801,0.734905
0.709745,0.605518,0.998701,0.734831
0.709319,0.605479,0.998601,0.734758
0.708893,0.605439,0.998501,0.734684
0.708823,0.6054,0.998401,0.734611
0.708752,0.605361,1,0.734537
0.708326,0.605321,0.9999,0.734464
0.707901,0.605282,0.9998,0.734391
0.707477,0.605242,0.9997,0.734317
0.707052,0.605203,0.9996,0.734244
0.706628,0.605164,0.9995,0.73417
0.706204,0.605124,0.9994,0.734097
0.70578,0.605085,0.9993,0.734023
0.705357,0.605046,0.9992,0.73395
0.704934,0.605006,0.9991,0.733877
0.704511,0.604967,0.999,0.733803
0.704088,0.604927,0.998901,0.73373
0.703666,0.604888,0.998801,0.733656
0.703244,0.604849,0.998701,0.733583
0.702822,0.604809,0.998601,0.73351
0.7024,0.60477,0.998501,0.733436
0.701979,0.604731,0.998401,0.733363
0.701558,0.604691,0.998301,0.73329
0.701137,0.604652,0.998202,0.733216
0.700716,0.604613,0.998102,0.733143
0.700296,0.604573,0.998002,0.73307
0.699875,0.604534,0.997902,0.732996
0.699456,0.604494,0.997802,0.732923
0.699386,0.604455,0.997703,0.73285
0.699316,0.604416,1,0.732777
0.698896,0.604376,0.9999,0.732703
0.698477,0.604337,0.9998,0.73263
0.698058,0.604298,0.9997,0.732557
0.697639,0.604259,0.9996,0.732483
0.69722,0.604219,0.9995,0.73241
0.696802,0.60418,0.9994,0.732337
0.696384,0.604141,0.9993,0.732264
0.695966,0.604101,0.9992,0.732191
0.695549,0.604062,0.9991,0.732117
0.695131,0.604023,0.999,0.732044
0.694714,0.603983,0.998901,0.731971
0.694298,0.603944,0.998801,0.731898
0.693881,0.603905,0.998701,0.731825
0.693465,0.603865,0.998601,0.731751
0.693049,0.603826,0.998501,0.731678
0.692633,0.603787,0.998401,0.731605
0.692217,0.603747,0.998301,0.731532
0.691802,0.603708,0.998202,0.731459
0.691387,0.603669,0.998102,0.731386
0.690972,0.60363,0.998002,0.731312
0.690558,0.60359,0.997902,0.731239
0.690143,0.603551,0.997802,0.731166
0.689729,0.603512,0.997703,0.731093
0.689316,0.603473,0.997603,0.73102
0.688902,0.603433,0.997503,0.730947
0.688489,0.603394,0.997403,0.730874
0.688076,0.603355,0.997304,0.730801
0.687663,0.603315,0.997204,0.730728
0.68725,0.603276,0.997104,0.730654
0.686838,0.603237,0.997004,0.730581
0.686426,0.603198,0.996905,0.730508
0.686014,0.603158,0.996805,0.730435
0.685602,0.603119,0.996705,0.730362
0.685191,0.60308,0.996606,0.730289
0.68478,0.603041,0.996506,0.730216
0.684369,0.603001,0.996406,0.730143
0.683959,0.602962,0.996307,0.73007
0.683548,0.602923,0.996207,0.729997
0.683138,0.602884,0.996107,0.729924
0.682728,0.602844,0.996008,0.729851
0.682319,0.602805,0.995908,0.729778
0.681909,0.602766,0.995809,0.729705
0.6815,0.602727,0.995709,0.729632
0.681091,0.602688,0.995609,0.729559
0.680683,0.602648,0.99551,0.729486
0.680615,0.602609,0.99541,0.729413
0.680547,0.60257,1,0.72934
0.680138,0.602531,0.9999,0.729267
0.67973,0.602491,0.9998,0.729195
0.679323,0.602452,0.9997,0.729122
0.678915,0.602413,0.9996,0.729049
0.678508,0.602374,0.9995,0.728976
0.678101,0.602335,0.9994,0.728903
0.677694,0.602295,0.9993,0.72883
0.677287,0.602256,0.9992,0.728757
0.676881,0.602217,0.9991,0.728684
0.676475,0.602178,0.999,0.728611
0.676407,0.602139,0.998901,0.728539
0.676339,0.602099,1,0.728466
0.675934,0.60206,0.9999,0.728393
0.675528,0.602021,0.9998,0.72832
0.675123,0.601982,0.9997,0.728247
0.674718,0.601943,0.9996,0.728174
0.674313,0.601904,0.9995,0.728102
0.673909,0.601864,0.9994,0.728029
0.673504,0.601825,0.9993,0.727956
0.6731,0.601786,0.9992,0.727883
0.672696,0.601747,0.9991,0.72781
0.672293,0.601708,0.999,0.727738
0.671889,0.601669,0.998901,0.727665
0.671486,0.601629,0.998801,0.727592
0.671083,0.60159,0.998701,0.727519
0.670681,0.601551,0.998601,0.727446
0.670278,0.601512,0.998501,0.727374
0.669876,0.601473,0.998401,0.727301
0.669474,0.601434,0.998301,0.727228
0.669073,0.601395,0.998202,0.727156
0.668671,0.601355,0.998102,0.727083
0.66827,0.601316,0.998002,0.72701
0.667869,0.601277,0.997902,0.726937
0.667469,0.601238,0.997802,0.726865
0.667068,0.601199,0.997703,0.726792
0.666668,0.60116,0.997603,0.726719
0.666268,0.601121,0.997503,0.726647
0.665868,0.601082,0.997403,0.726574
0.665469,0.601042,0.997304,0.726501
0.665069,0.601003,0.997204,0.726429
0.66467,0.600964,0.997104,0.726356
0.664272,0.600925,0.997004,0.726283
0.663873,0.600886,0.996905,0.726211
0.663475,0.600847,0.996805,0.726138
0.663077,0.600808,0.996705,0.726066
0.662679,0.600769,0.996606,0.725993
0.662281,0.60073,0.996506,0.72592
0.661884,0.60069,0.996406,0.725848
0.661487,0.600651,0.996307,0.725775
0.66109,0.600612,0.996207,0.725703
0.660694,0.600573,0.996107,0.72563
0.660297,0.600534,0.996008,0.725557
0.659901,0.600495,0.995908,0.725485
0.659505,0.600456,0.995809,0.725412
0.659439,0.600417,0.995709,0.72534
0.659373,0.600378,1,0.725267
0.658978,0.600339,0.9999,0.725195
0.658582,0.6003,0.9998,0.725122
0.658187,0.600261,0.9997,0.72505
0.657792,0.600222,0.9996,0.724977
0.657398,0.600183,0.9995,0.724905
0.657003,0.600143,0.9994,0.724832
0.656609,0.600104,0.9993,0.72476
0.656215,0.600065,0.9992,0.724687
0.655821,0.600026,0.9991,0.724615
0.655428,0.599987,0.999,0.724542
0.655035,0.599948,0.998901,0.72447
0.654642,0.599909,0.998801,0.724397
0.654249,0.59987,0.998701,0.724325
0.653856,0.599831,0.998601,0.724253
0.653464,0.599792,0.998501,0.72418
0.653072,0.599753,0.998401,0.724108
0.65268,0.599714,0.998301,0.724035
0.652615,0.599675,0.998202,0.723963
0.65255,0.599636,1,0.723891
0.652158,0.599597,0.9999,0.723818
0.651767,0.599558,0.9998,0.723746
0.651376,0.599519,0.9997,0.723673
0.650985,0.59948,0.9996,0.723601
0.650595,0.599441,0.9995,0.723529
0.650204,0.599402,0.9994,0.723456
0.649814,0.599363,0.9993,0.723384
0.649424,0.599324,0.9992,0.723312
0.649035,0.599285,0.9991,0.723239
0.648645,0.599246,0.999,0.723167
0.648256,0.599207,0.998901,0.723095
0.647867,0.599168,0.998801,0.723022
0.647479,0.599129,0.998701,0.72295
0.64709,0.59909,0.998601,0.722878
0.646702,0.599051,0.998501,0.722805
0.646314,0.599012,0.998401,0.722733
0.645926,0.598973,0.998301,0.722661
0.645539,0.598934,0.998202,0.722589
0.645151,0.598895,0.998102,0.722516
0.644764,0.598856,0.998002,0.722444
0.644377,0.598817,0.997902,0.722372
0.643991,0.598778,0.997802,0.7223
0.643605,0.598739,0.997703,0.722227
0.64354,0.5987,0.997603,0.722155
0.643476,0.598661,1,0.722083
0.64309,0.598622,0.9999,0.722011
0.642704,0.598583,0.9998,0.721939
0.642318,0.598544,0.9997,0.721866
0.641933,0.598505,0.9996,0.721794
0.641548,0.598466,0.9995,0.721722
0.641163,0.598427,0.9994,0.72165
0.640778,0.598388,0.9993,0.721578
0.640714,0.598349,0.9992,0.721506
0.64065,0.598311,1,0.721433
0.640266,0.598272,0.9999,0.721361
0.639882,0.598233,0.9998,0.721289
0.639498,0.598194,0.9997,0.721217
0.639114,0.598155,0.9996,0.721145
0.638731,0.598116,0.9995,0.721073
0.638347,0.598077,0.9994,0.721001
0.637964,0.598038,0.9993,0.720929
0.637582,0.597999,0.9992,0.720856
0.637199,0.59796,0.9991,0.720784
0.636817,0.597921,0.999,0.720712
0.636435,0.597882,0.998901,0.72064
0.636053,0.597843,0.998801,0.720568
0.635671,0.597805,0.998701,0.720496
0.63529,0.597766,0.998601,0.720424
0.634909,0.597727,0.998501,0.720352
0.634528,0.597688,0.998401,0.72028
0.634147,0.597649,0.998301,0.720208
0.633767,0.59761,0.998202,0.720136
0.633387,0.597571,0.998102,0.720064
0.633007,0.597532,0.998002,0.719992
0.632627,0.597493,0.997902,0.71992
0.632247,0.597455,0.997802,0.719848
0.631868,0.597416,0.997703,0.719776
0.631489,0.597377,0.997603,0.719704
0.63111,0.597338,0.997503,0.719632
0.630731,0.597299,0.997403,0.71956
0.630353,0.59726,0.997304,0.719488
0.629975,0.597221,0.997204,0.719416
0.629597,0.597182,0.997104,0.719344
0.629219,0.597144,0.997004,0.719272
0.628842,0.597105,0.996905,0.7192
0.628464,0.597066,0.996805,0.719128
0.628087,0.597027,0.996705,0.719056
0.627711,0.596988,0.996606,0.718985
0.627334,0.596949,0.996506,0.718913
0.626958,0.59691,0.996406,0.718841
0.626581,0.596872,0.996307,0.718769
0.626205,0.596833,0.996207,0.718697
0.62583,0.596794,0.996107,0.718625
0.625767,0.596755,0.996008,0.718553
0.625705,0.596716,1,0.718481
0.625329,0.596677,0.9999,0.71841
0.624954,0.596639,0.9998,0.718338
0.624579,0.5966,0.9997,0.718266
0.624204,0.596561,0.9996,0.718194
0.62383,0.596522,0.9995,0.718122
0.623456,0.596483,0.9994,0.71805
0.623082,0.596444,0.9993,0.717979
0.622708,0.596406,0.9992,0.717907
0.622334,0.596367,0.9991,0.717835
0.621961,0.596328,0.999,0.717763
0.621588,0.596289,0.998901,0.717691
0.621215,0.59625,0.998801,0.71762
0.620842,0.596212,0.998701,0.717548
0.62047,0.596173,0.998601,0.717476
0.620097,0.596134,0.998501,0.717404
0.619725,0.596095,0.998401,0.717333
0.619354,0.596056,0.998301,0.717261
0.618982,0.596018,0.998202,0.717189
0.618611,0.595979,0.998102,0.717118
0.618239,0.59594,0.998002,0.717046
0.617869,0.595901,0.997902,0.716974
0.617498,0.595862,0.997802,0.716902
0.617127,0.595824,0.997703,0.716831
0.616757,0.595785,0.997603,0.716759
0.616387,0.595746,0.997503,0.716687
0.616017,0.595707,0.997403,0.716616
0.615648,0.595669,0.997304,0.716544
0.615278,0.59563,0.997204,0.716472
0.614909,0.595591,0.997104,0.716401
0.61454,0.595552,0.997004,0.716329
0.614172,0.595514,0.996905,0.716257
0.613803,0.595475,0.996805,0.716186
0.613435,0.595436,0.996705,0.716114
0.613067,0.595397,0.996606,0.716043
0.612699,0.595359,0.996506,0.715971
0.612331,0.59532,0.996406,0.715899
0.611964,0.595281,0.996307,0.715828
0.611597,0.595242,0.996207,0.715756
0.611536,0.595204,0.996107,0.715685
0.611475,0.595165,1,0.715613
0.611108,0.595126,0.9999,0.715542
0.610741,0.595087,0.9998,0.71547
0.610375,0.595049,0.9997,0.715398
0.610009,0.59501,0.9996,0.715327
0.609643,0.594971,0.9995,0.715255
0.609277,0.594933,0.9994,0.715184
0.608911,0.594894,0.9993,0.715112
0.608546,0.594855,0.9992,0.715041
0.608181,0.594816,0.9991,0.714969
