energy,productivity,fun,hunger
0.931116,0.67486,0.673721,0.788754
0.931022,0.674785,0.693863,0.788675
0.930464,0.67471,0.714608,0.788596
0.929906,0.674634,0.735972,0.788517
0.929348,0.674559,0.735899,0.788438
0.92879,0.674483,0.735825,0.788359
0.928233,0.674408,0.735751,0.78828
0.927676,0.674333,0.735678,0.788202
0.92712,0.674257,0.735604,0.788123
0.926563,0.674182,0.735531,0.788044
0.926007,0.674106,0.735457,0.787965
0.925452,0.674031,0.735384,0.787886
0.924897,0.673956,0.73531,0.787808
0.924342,0.67388,0.735237,0.787729
0.923787,0.673805,0.735163,0.78765
0.923233,0.67373,0.73509,0.787571
0.922679,0.673654,0.735016,0.787493
0.922125,0.673579,0.734942,0.787414
0.921572,0.673504,0.734869,0.787335
0.921019,0.673429,0.734796,0.787256
0.920467,0.673353,0.734722,0.787178
0.919915,0.673278,0.734649,0.787099
0.919363,0.673203,0.734575,0.78702
0.918811,0.673128,0.734502,0.786941
0.91826,0.673052,0.734428,0.786863
0.917709,0.672977,0.734355,0.786784
0.917158,0.672902,0.734281,0.786705
0.916608,0.672827,0.734208,0.786627
0.916058,0.672751,0.734134,0.786548
0.915509,0.672676,0.734061,0.786469
0.914959,0.672601,0.733988,0.786391
0.91441,0.672526,0.733914,0.786312
0.913862,0.672451,0.733841,0.786233
0.913314,0.672375,0.733767,0.786155
0.912766,0.6723,0.733694,0.786076
0.912218,0.672225,0.733621,0.785998
0.911671,0.67215,0.733547,0.785919
0.911124,0.672075,0.733474,0.78584
0.910577,0.672,0.733401,0.785762
0.910031,0.671925,0.733327,0.785683
0.909485,0.67185,0.733254,0.785605
0.908939,0.671774,0.733181,0.785526
0.908394,0.671699,0.733107,0.785448
0.907849,0.671624,0.733034,0.785369
0.907304,0.671549,0.732961,0.785291
0.90676,0.671474,0.732887,0.785212
0.906216,0.671399,0.732814,0.785133
0.905672,0.671324,0.732741,0.785055
0.905129,0.671249,0.732668,0.784976
0.904586,0.671174,0.732594,0.784898
0.904043,0.671099,0.732521,0.784819
0.903501,0.671024,0.732448,0.784741
0.902959,0.670949,0.732375,0.784663
0.902417,0.670874,0.732301,0.784584
0.901876,0.670799,0.732228,0.784506
0.901334,0.670724,0.732155,0.784427
0.900794,0.670649,0.732082,0.784349
0.900253,0.670574,0.732008,0.78427
0.899713,0.670499,0.731935,0.784192
0.899173,0.670424,0.731862,0.784113
0.898634,0.670349,0.731789,0.784035
0.898095,0.670274,0.731716,0.783957
0.897556,0.670199,0.731643,0.783878
0.897017,0.670124,0.731569,0.7838
0.896479,0.670049,0.731496,0.783721
0.895941,0.669975,0.731423,0.783643
0.895404,0.6699,0.73135,0.783565
0.895314,0.669825,0.731277,0.783486
0.895225,0.66975,0.731204,0.783408
0.895135,0.669675,0.731131,0.78333
0.895046,0.6696,0.731057,0.783251
0.894956,0.669525,0.730984,0.783173
0.894867,0.66945,0.730911,0.783095
0.894777,0.669376,0.730838,0.783016
0.894688,0.669301,0.730765,0.782938
0.894598,0.669226,0.730692,0.78286
0.894509,0.669151,0.730619,0.782781
0.894419,0.669076,0.730546,0.782703
0.89433,0.669002,0.730473,0.782625
0.894241,0.668927,0.7304,0.782547
0.894151,0.668852,0.730327,0.782468
0.894062,0.668777,0.730254,0.78239
0.893972,0.668703,0.730181,0.782312
0.893883,0.668628,0.730108,0.782234
0.893794,0.668553,0.730035,0.782155
0.893704,0.668478,0.729962,0.782077
0.893615,0.668404,0.729889,0.781999
0.893525,0.668329,0.729816,0.781921
0.893436,0.668254,0.729743,0.781843
0.893347,0.668179,0.72967,0.781764
0.893257,0.668105,0.729597,0.781686
0.893168,0.66803,0.729524,0.781608
0.893079,0.667955,0.729451,0.78153
0.892989,0.667881,0.729378,0.781452
0.8929,0.667806,0.729305,0.781374
0.892811,0.667731,0.729232,0.781296
0.892722,0.667657,0.729159,0.781217
0.892632,0.667582,0.729086,0.781139
0.892543,0.667508,0.729013,0.781061
0.892454,0.667433,0.72894,0.780983
0.892365,0.667358,0.728867,0.780905
0.892275,0.667284,0.728795,0.780827
0.892186,0.667209,0.728722,0.780749
0.892097,0.667135,0.728649,0.780671
0.892008,0.66706,0.728576,0.780593
0.891918,0.666985,0.728503,0.780515
0.891829,0.666911,0.72843,0.780437
0.89174,0.666836,0.728357,0.780358
0.891651,0.666762,0.728285,0.78028
0.891562,0.666687,0.728212,0.780202
0.891473,0.666613,0.728139,0.780124
0.891383,0.666538,0.728066,0.780046
0.891294,0.666464,0.727993,0.779968
0.891205,0.666389,0.72792,0.77989
0.891116,0.666315,0.727848,0.779812
0.891027,0.66624,0.727775,0.779734
0.890938,0.666166,0.727702,0.779656
0.890849,0.666091,0.727629,0.779578
0.89076,0.666017,0.727557,0.779501
0.890671,0.665942,0.727484,0.779423
0.890582,0.665868,0.727411,0.779345
0.890492,0.665794,0.727338,0.779267
0.890403,0.665719,0.727266,0.779189
0.890314,0.665645,0.727193,0.779111
0.890225,0.66557,0.72712,0.779033
0.890136,0.665496,0.727047,0.778955
0.890047,0.665421,0.726975,0.778877
0.889958,0.665347,0.726902,0.778799
0.889869,0.665273,0.726829,0.778721
0.88978,0.665198,0.726757,0.778644
0.889691,0.665124,0.726684,0.778566
0.889602,0.66505,0.726611,0.778488
0.889513,0.664975,0.726539,0.77841
0.889424,0.664901,0.726466,0.778332
0.889336,0.664827,0.726393,0.778254
0.889247,0.664752,0.726321,0.778176
0.889158,0.664678,0.726248,0.778099
0.889069,0.664604,0.726175,0.778021
0.88898,0.664529,0.726103,0.777943
0.888891,0.664455,0.72603,0.777865
0.888802,0.664381,0.725958,0.777787
0.888713,0.664307,0.725885,0.77771
0.888624,0.664232,0.725812,0.777632
0.888535,0.664158,0.72574,0.777554
0.888447,0.664084,0.725667,0.777476
0.888358,0.66401,0.725595,0.777399
0.888269,0.663935,0.725522,0.777321
0.88818,0.663861,0.72545,0.777243
0.888091,0.663787,0.725377,0.777165
0.888002,0.663713,0.725305,0.777088
0.887914,0.663639,0.725232,0.77701
0.887825,0.663564,0.725159,0.776932
0.887736,0.66349,0.725087,0.776855
0.887647,0.663416,0.725014,0.776777
0.887559,0.663342,0.724942,0.776699
0.88747,0.663268,0.724869,0.776622
0.887381,0.663194,0.724797,0.776544
0.887292,0.663119,0.724724,0.776466
0.887204,0.663045,0.724652,0.776389
0.887115,0.662971,0.72458,0.776311
0.887026,0.662897,0.724507,0.776233
0.886937,0.662823,0.724435,0.776156
0.886849,0.662749,0.724362,0.776078
0.88676,0.662675,0.72429,0.776
0.886671,0.662601,0.724217,0.775923
0.886583,0.662527,0.724145,0.775845
0.886494,0.662453,0.724072,0.775768
0.886405,0.662379,0.724,0.77569
0.886317,0.662305,0.723928,0.775613
0.886228,0.662231,0.723855,0.775535
0.88614,0.662157,0.723783,0.775457
0.886051,0.662083,0.723711,0.77538
0.885962,0.662009,0.723638,0.775302
0.885874,0.661934,0.723566,0.775225
0.885785,0.661861,0.723493,0.775147
0.885697,0.661787,0.723421,0.77507
0.885608,0.661713,0.723349,0.774992
0.885519,0.661639,0.723276,0.774915
0.885431,0.661565,0.723204,0.774837
0.885342,0.661491,0.723132,0.77476
0.885254,0.661417,0.723059,0.774682
0.885165,0.661343,0.722987,0.774605
0.885077,0.661269,0.722915,0.774527
0.884988,0.661195,0.722843,0.77445
0.8849,0.661121,0.72277,0.774373
0.884811,0.661047,0.722698,0.774295
0.884723,0.660973,0.722626,0.774218
0.884634,0.660899,0.722553,0.77414
0.884546,0.660825,0.722481,0.774063
0.884457,0.660752,0.722409,0.773985
0.884369,0.660678,0.722337,0.773908
0.88428,0.660604,0.722264,0.773831
0.884192,0.66053,0.722192,0.773753
0.884104,0.660456,0.72212,0.773676
0.884015,0.660382,0.722048,0.773598
0.883927,0.660309,0.721976,0.773521
0.883838,0.660235,0.721903,0.773444
0.88375,0.660161,0.721831,0.773366
0.883662,0.660087,0.721759,0.773289
0.883573,0.660013,0.721687,0.773212
0.883485,0.65994,0.721615,0.773134
0.883397,0.659866,0.721543,0.773057
0.883308,0.659792,0.72147,0.77298
0.88322,0.659718,0.721398,0.772903
0.883132,0.659645,0.721326,0.772825
0.883043,0.659571,0.721254,0.772748
0.882955,0.659497,0.721182,0.772671
0.882867,0.659423,0.72111,0.772593
0.882778,0.65935,0.721038,0.772516
0.88269,0.659276,0.720966,0.772439
0.882602,0.659202,0.720893,0.772362
0.882514,0.659129,0.720821,0.772284
0.882425,0.659055,0.720749,0.772207
0.882337,0.658981,0.720677,0.77213
0.882249,0.658908,0.720605,0.772053
0.882161,0.658834,0.720533,0.771976
0.882072,0.65876,0.720461,0.771898
0.881984,0.658687,0.720389,0.771821
0.881896,0.658613,0.720317,0.771744
0.881808,0.658539,0.720245,0.771667
0.88172,0.658466,0.720173,0.77159
0.881631,0.658392,0.720101,0.771512
0.881543,0.658319,0.720029,0.771435
0.881455,0.658245,0.719957,0.771358
0.881367,0.658171,0.719885,0.771281
0.881279,0.658098,0.719813,0.771204
0.881191,0.658024,0.719741,0.771127
0.881103,0.657951,0.719669,0.77105
0.881015,0.657877,0.719597,0.770973
0.880926,0.657804,0.719525,0.770895
0.880838,0.65773,0.719453,0.770818
0.88075,0.657657,0.719381,0.770741
0.880662,0.657583,0.719309,0.770664
0.880574,0.65751,0.719237,0.770587
0.880486,0.657436,0.719165,0.77051
0.880398,0.657363,0.719093,0.770433
0.88031,0.657289,0.719021,0.770356
0.880222,0.657216,0.71895,0.770279
0.880134,0.657142,0.718878,0.770202
0.880046,0.657069,0.718806,0.770125
0.879958,0.656995,0.718734,0.770048
0.87987,0.656922,0.718662,0.769971
0.879782,0.656848,0.71859,0.769894
0.879694,0.656775,0.718518,0.769817
0.879606,0.656702,0.718446,0.76974
0.879518,0.656628,0.718375,0.769663
0.87943,0.656555,0.718303,0.769586
0.879342,0.656481,0.718231,0.769509
0.879254,0.656408,0.718159,0.769432
0.879166,0.656335,0.718087,0.769355
0.879078,0.656261,0.718015,0.769278
0.87899,0.656188,0.717944,0.769201
0.878903,0.656115,0.717872,0.769124
0.878815,0.656041,0.7178,0.769047
0.878727,0.655968,0.717728,0.768971
0.878639,0.655895,0.717657,0.768894
0.878551,0.655821,0.717585,0.768817
0.878463,0.655748,0.717513,0.76874
0.878375,0.655675,0.717441,0.768663
0.878287,0.655601,0.71737,0.768586
0.8782,0.655528,0.717298,0.768509
0.878112,0.655455,0.717226,0.768432
0.878024,0.655381,0.717154,0.768356
0.877936,0.655308,0.717083,0.768279
0.877848,0.655235,0.717011,0.768202
0.877761,0.655162,0.716939,0.768125
0.877673,0.655088,0.716867,0.768048
0.877585,0.655015,0.716796,0.767972
0.877497,0.654942,0.716724,0.767895
0.87741,0.654869,0.716652,0.767818
0.877322,0.654796,0.716581,0.767741
0.877234,0.654722,0.716509,0.767664
0.877146,0.654649,0.716437,0.767588
0.877059,0.654576,0.716366,0.767511
0.876971,0.654503,0.716294,0.767434
0.876883,0.65443,0.716223,0.767357
0.876796,0.654357,0.716151,0.767281
0.876708,0.654283,0.716079,0.767204
0.87662,0.65421,0.716008,0.767127
0.876533,0.654137,0.715936,0.76705
0.876445,0.654064,0.715865,0.766974
0.876357,0.653991,0.715793,0.766897
0.87627,0.653918,0.715721,0.76682
0.876182,0.653845,0.71565,0.766744
0.876094,0.653772,0.715578,0.766667
0.876007,0.653699,0.715507,0.76659
0.875919,0.653626,0.715435,0.766514
0.875832,0.653552,0.715364,0.766437
0.875744,0.653479,0.715292,0.76636
0.875656,0.653406,0.715221,0.766284
0.875569,0.653333,0.715149,0.766207
0.875481,0.65326,0.715077,0.76613
0.875394,0.653187,0.715006,0.766054
0.875306,0.653114,0.714934,0.765977
0.875219,0.653041,0.714863,0.765901
0.875131,0.652968,0.714791,0.765824
0.875044,0.652895,0.71472,0.765748
0.874956,0.652822,0.714649,0.765671
0.874869,0.652749,0.714577,0.765594
0.874781,0.652676,0.714506,0.765518
0.874694,0.652603,0.714434,0.765441
0.874606,0.65253,0.714363,0.765365
0.874519,0.652457,0.714291,0.765288
0.874431,0.652385,0.71422,0.765212
0.874344,0.652312,0.714148,0.765135
0.874256,0.652239,0.714077,0.765059
0.874169,0.652166,0.714006,0.764982
0.874082,0.652093,0.713934,0.764906
0.873994,0.65202,0.713863,0.764829
0.873907,0.651947,0.713791,0.764753
0.873819,0.651874,0.71372,0.764676
0.873732,0.651801,0.713649,0.7646
0.873645,0.651729,0.713577,0.764523
0.873557,0.651656,0.713506,0.764447
0.87347,0.651583,0.713435,0.76437
0.873383,0.65151,0.713363,0.764294
0.873295,0.651437,0.713292,0.764217
0.873208,0.651364,0.713221,0.764141
0.873121,0.651292,0.713149,0.764065
0.873033,0.651219,0.713078,0.763988
0.872946,0.651146,0.713007,0.763912
0.872859,0.651073,0.712935,0.763835
0.872771,0.651,0.712864,0.763759
0.872684,0.650928,0.712793,0.763683
0.872597,0.650855,0.712721,0.763606
0.87251,0.650782,0.71265,0.76353
0.872422,0.650709,0.712579,0.763454
0.872335,0.650637,0.712508,0.763377
0.872248,0.650564,0.712436,0.763301
0.872161,0.650491,0.712365,0.763225
0.872073,0.650418,0.712294,0.763148
0.871986,0.650346,0.712223,0.763072
0.871899,0.650273,0.712152,0.762996
0.871812,0.6502,0.71208,0.762919
0.871725,0.650128,0.712009,0.762843
0.871637,0.650055,0.711938,0.762767
0.87155,0.649982,0.711867,0.76269
0.871463,0.64991,0.711796,0.762614
0.871376,0.649837,0.711724,0.762538
0.871289,0.649764,0.711653,0.762462
0.871202,0.649692,0.711582,0.762385
0.871115,0.649619,0.711511,0.762309
0.871028,0.649547,0.71144,0.762233
0.87094,0.649474,0.711369,0.762157
0.870853,0.649401,0.711297,0.762081
0.870766,0.649329,0.711226,0.762004
0.870679,0.649256,0.711155,0.761928
0.870592,0.649184,0.711084,0.761852
0.870505,0.649111,0.711013,0.761776
0.870418,0.649038,0.710942,0.7617
0.870331,0.648966,0.710871,0.761623
0.870244,0.648893,0.7108,0.761547
0.870157,0.648821,0.710729,0.761471
0.87007,0.648748,0.710657,0.761395
0.869983,0.648676,0.710586,0.761319
0.869896,0.648603,0.710515,0.761243
0.869809,0.648531,0.710444,0.761167
0.869722,0.648458,0.710373,0.76109
0.869635,0.648386,0.731611,0.761014
0.869113,0.648313,0.731538,0.760938
0.868592,0.648241,0.731465,0.760862
0.868071,0.648168,0.731392,0.760786
0.86755,0.648096,0.731319,0.76071
0.867029,0.648023,0.731246,0.760634
0.866509,0.647951,0.731172,0.760558
0.865989,0.647879,0.731099,0.760482
0.86547,0.647806,0.731026,0.760406
0.864951,0.647734,0.730953,0.76033
0.864432,0.647661,0.73088,0.760254
0.863913,0.647589,0.730807,0.760178
0.863395,0.647517,0.730734,0.760102
0.862877,0.647444,0.730661,0.760026
0.862359,0.647372,0.730588,0.75995
0.861842,0.647299,0.730515,0.759874
0.861325,0.647227,0.730442,0.759798
0.860808,0.647155,0.730369,0.759722
0.860722,0.647082,0.730296,0.759646
0.860636,0.64701,0.730222,0.75957
0.86055,0.646938,0.730149,0.759494
0.860464,0.646865,0.730076,0.759418
0.860377,0.646793,0.730003,0.759342
0.860291,0.646721,0.72993,0.759266
0.860205,0.646649,0.729857,0.75919
0.860119,0.646576,0.729784,0.759114
0.860033,0.646504,0.729711,0.759038
0.859947,0.646432,0.729639,0.758962
0.859861,0.646359,0.729566,0.758886
0.859775,0.646287,0.729493,0.75881
0.859689,0.646215,0.72942,0.758735
0.859603,0.646143,0.729347,0.758659
0.859518,0.646071,0.729274,0.758583
0.859432,0.645998,0.729201,0.758507
0.859346,0.645926,0.729128,0.758431
0.85926,0.645854,0.729055,0.758355
0.859174,0.645782,0.728982,0.758279
0.859088,0.645709,0.728909,0.758204
0.859002,0.645637,0.728836,0.758128
0.858916,0.645565,0.728763,0.758052
0.85883,0.645493,0.728691,0.757976
0.858744,0.645421,0.728618,0.7579
0.858658,0.645349,0.728545,0.757825
0.858573,0.645277,0.728472,0.757749
0.858487,0.645204,0.728399,0.757673
0.858401,0.645132,0.728326,0.757597
0.858315,0.64506,0.728253,0.757522
0.858229,0.644988,0.728181,0.757446
0.858143,0.644916,0.728108,0.75737
0.858057,0.644844,0.728035,0.757294
0.857972,0.644772,0.727962,0.757219
0.857886,0.6447,0.727889,0.757143
0.8578,0.644628,0.727817,0.757067
0.857714,0.644556,0.727744,0.756991
0.857629,0.644484,0.727671,0.756916
0.857543,0.644412,0.727598,0.75684
0.857457,0.644339,0.727526,0.756764
0.857371,0.644267,0.727453,0.756689
0.857286,0.644195,0.72738,0.756613
0.8572,0.644123,0.727307,0.756537
0.857114,0.644051,0.727235,0.756462
0.857028,0.643979,0.727162,0.756386
0.856943,0.643907,0.727089,0.75631
0.856857,0.643835,0.727016,0.756235
0.856771,0.643764,0.726944,0.756159
0.856686,0.643692,0.726871,0.756084
0.8566,0.64362,0.726798,0.756008
0.856514,0.643548,0.726726,0.755932
0.856429,0.643476,0.726653,0.755857
0.856343,0.643404,0.72658,0.755781
0.856257,0.643332,0.726508,0.755706
0.856172,0.64326,0.726435,0.75563
0.856086,0.643188,0.726362,0.755554
0.856001,0.643116,0.72629,0.755479
0.855915,0.643044,0.726217,0.755403
0.855829,0.642972,0.726144,0.755328
0.855744,0.642901,0.726072,0.755252
0.855658,0.642829,0.725999,0.755177
0.855573,0.642757,0.725927,0.755101
0.855487,0.642685,0.725854,0.755026
0.855401,0.642613,0.725781,0.75495
0.855316,0.642541,0.725709,0.754875
0.85523,0.642469,0.725636,0.754799
0.855145,0.642398,0.725564,0.754724
0.855059,0.642326,0.725491,0.754648
0.854974,0.642254,0.725419,0.754573
0.854888,0.642182,0.725346,0.754497
0.854803,0.64211,0.725274,0.754422
0.854717,0.642039,0.725201,0.754346
0.854632,0.641967,0.725129,0.754271
0.854546,0.641895,0.725056,0.754196
0.854461,0.641823,0.724984,0.75412
0.854376,0.641752,0.724911,0.754045
0.85429,0.64168,0.724839,0.753969
0.854205,0.641608,0.724766,0.753894
0.854119,0.641536,0.724694,0.753819
0.854034,0.641465,0.724621,0.753743
0.853948,0.641393,0.724549,0.753668
0.853863,0.641321,0.724476,0.753592
0.853778,0.64125,0.724404,0.753517
0.853692,0.641178,0.724331,0.753442
0.853607,0.641106,0.724259,0.753366
0.853522,0.641035,0.724186,0.753291
0.853436,0.640963,0.724114,0.753216
0.853351,0.640891,0.724042,0.75314
0.853266,0.64082,0.723969,0.753065
0.85318,0.640748,0.723897,0.75299
0.853095,0.640676,0.723824,0.752914
0.85301,0.640605,0.723752,0.752839
0.852924,0.640533,0.72368,0.752764
0.852839,0.640462,0.723607,0.752689
0.852754,0.64039,0.723535,0.752613
0.852668,0.640318,0.723463,0.752538
0.852583,0.640247,0.72339,0.752463
0.852498,0.640175,0.723318,0.752388
0.852413,0.640104,0.723246,0.752312
0.852327,0.640032,0.723173,0.752237
0.852242,0.639961,0.723101,0.752162
0.852157,0.639889,0.723029,0.752087
0.852072,0.639818,0.722956,0.752011
0.851987,0.639746,0.722884,0.751936
0.851901,0.639675,0.722812,0.751861
0.851816,0.639603,0.722739,0.751786
0.851731,0.639532,0.722667,0.751711
0.851646,0.63946,0.722595,0.751636
0.851561,0.639389,0.722523,0.75156
0.851475,0.639317,0.72245,0.751485
0.85139,0.639246,0.722378,0.75141
0.851305,0.639174,0.722306,0.751335
0.85122,0.639103,0.722234,0.75126
0.851135,0.639031,0.722161,0.751185
0.85105,0.63896,0.722089,0.75111
0.850965,0.638888,0.722017,0.751034
0.85088,0.638817,0.721945,0.750959
0.850795,0.638746,0.721873,0.750884
0.850709,0.638674,0.7218,0.750809
0.850624,0.638603,0.721728,0.750734
0.850539,0.638531,0.721656,0.750659
0.850454,0.63846,0.721584,0.750584
0.850369,0.638389,0.721512,0.750509
0.850284,0.638317,0.72144,0.750434
0.850199,0.638246,0.721367,0.750359
0.850114,0.638175,0.721295,0.750284
0.850029,0.638103,0.721223,0.750209
0.849944,0.638032,0.721151,0.750134
0.849859,0.637961,0.721079,0.750059
0.849774,0.637889,0.721007,0.749984
0.849689,0.637818,0.720935,0.749909
0.849604,0.637747,0.720863,0.749834
0.849519,0.637675,0.720791,0.749759
0.849434,0.637604,0.720718,0.749684
0.849349,0.637533,0.720646,0.749609
0.849264,0.637462,0.720574,0.749534
0.849179,0.63739,0.720502,0.749459
0.849095,0.637319,0.72043,0.749384
0.84901,0.637248,0.720358,0.749309
0.848925,0.637177,0.720286,0.749234
0.84884,0.637105,0.720214,0.749159
0.848755,0.637034,0.720142,0.749084
0.84867,0.636963,0.72007,0.749009
0.848585,0.636892,0.719998,0.748934
0.8485,0.636821,0.719926,0.748859
0.848416,0.636749,0.719854,0.748785
0.848331,0.636678,0.719782,0.74871
0.848246,0.636607,0.71971,0.748635
0.848161,0.636536,0.719638,0.74856
0.848076,0.636465,0.719566,0.748485
0.847991,0.636394,0.719494,0.74841
0.847907,0.636322,0.719422,0.748335
0.847822,0.636251,0.71935,0.748261
0.847737,0.63618,0.719278,0.748186
0.847652,0.636109,0.719206,0.748111
0.847568,0.636038,0.719135,0.748036
0.847483,0.635967,0.719063,0.747961
0.847398,0.635896,0.718991,0.747887
0.847313,0.635825,0.718919,0.747812
0.847229,0.635754,0.718847,0.747737
0.847144,0.635683,0.718775,0.747662
0.847059,0.635612,0.718703,0.747587
0.846974,0.635541,0.718631,0.747513
0.84689,0.635469,0.718559,0.747438
0.846805,0.635398,0.718488,0.747363
0.84672,0.635327,0.718416,0.747288
0.846636,0.635256,0.718344,0.747214
0.846551,0.635185,0.718272,0.747139
0.846466,0.635114,0.7182,0.747064
0.846382,0.635043,0.718128,0.74699
0.846297,0.634972,0.718057,0.746915
0.846212,0.634901,0.717985,0.74684
0.846128,0.63483,0.717913,0.746766
0.846043,0.634759,0.717841,0.746691
0.845959,0.634689,0.717769,0.746616
0.845874,0.634618,0.717698,0.746542
0.845789,0.634547,0.717626,0.746467
0.845705,0.634476,0.717554,0.746392
0.84562,0.634405,0.717482,0.746318
0.845536,0.634334,0.717411,0.746243
0.845451,0.634263,0.717339,0.746168
0.845367,0.634192,0.717267,0.746094
0.845282,0.634121,0.717195,0.746019
0.845198,0.63405,0.717124,0.745944
0.845113,0.633979,0.717052,0.74587
0.845028,0.633909,0.71698,0.745795
