energy,productivity,fun,hunger
0.794999,0.450561,0.547897,0.641113
0.79492,0.450549,0.564277,0.641048
0.794443,0.450536,0.581147,0.640984
0.793966,0.450524,0.598522,0.64092
0.79349,0.450512,0.616416,0.640856
0.793014,0.450499,0.634845,0.640792
0.792538,0.450487,0.653825,0.640728
0.792062,0.450474,0.673372,0.640664
0.791587,0.450462,0.693504,0.6406
0.791112,0.45045,0.714238,0.640536
0.790638,0.450437,0.735591,0.640472
0.790163,0.450425,0.735518,0.640408
0.789689,0.450413,0.735444,0.640344
0.789215,0.4504,0.735371,0.64028
0.788742,0.450388,0.735297,0.640216
0.788269,0.450376,0.735224,0.640152
0.787796,0.450363,0.73515,0.640087
0.787323,0.450351,0.735077,0.640023
0.786851,0.450339,0.735003,0.639959
0.786379,0.450326,0.73493,0.639895
0.785907,0.450314,0.734856,0.639832
0.785435,0.450301,0.734783,0.639768
0.784964,0.450289,0.734709,0.639704
0.784493,0.450277,0.734636,0.63964
0.784023,0.450264,0.734562,0.639576
0.783552,0.450252,0.734489,0.639512
0.783082,0.45024,0.734415,0.639448
0.782612,0.450227,0.734342,0.639384
0.782143,0.450215,0.734269,0.63932
0.782065,0.450203,0.734195,0.639256
0.781986,0.45019,0.734122,0.639192
0.781908,0.450178,0.734048,0.639128
0.78183,0.450166,0.733975,0.639064
0.781752,0.450153,0.733901,0.639
0.781674,0.450141,0.733828,0.638936
0.781595,0.450129,0.733755,0.638872
0.781517,0.450116,0.733681,0.638809
0.781439,0.450104,0.733608,0.638745
0.781361,0.450092,0.733535,0.638681
0.781283,0.450079,0.733461,0.638617
0.781205,0.450067,0.733388,0.638553
0.781127,0.450054,0.733315,0.638489
0.781049,0.450042,0.733241,0.638425
0.78097,0.45003,0.733168,0.638362
0.780892,0.450017,0.733095,0.638298
0.780814,0.450005,0.733021,0.638234
0.780736,0.449993,0.732948,0.63817
0.780658,0.44998,0.732875,0.638106
0.78058,0.449968,0.732801,0.638042
0.780502,0.449956,0.732728,0.637979
0.780424,0.449943,0.732655,0.637915
0.780346,0.449931,0.732582,0.637851
0.780268,0.449919,0.732508,0.637787
0.78019,0.449906,0.732435,0.637723
0.780112,0.449894,0.732362,0.63766
0.780034,0.449882,0.732289,0.637596
0.779956,0.449869,0.732215,0.637532
0.779878,0.449857,0.732142,0.637468
0.7798,0.449845,0.732069,0.637405
0.779722,0.449832,0.731996,0.637341
0.779644,0.44982,0.731923,0.637277
0.779566,0.449808,0.731849,0.637213
0.779488,0.449795,0.731776,0.63715
0.77941,0.449783,0.731703,0.637086
0.779332,0.449771,0.73163,0.637022
0.779254,0.449758,0.731557,0.636959
0.779176,0.449746,0.731483,0.636895
0.779098,0.449734,0.73141,0.636831
0.77902,0.449721,0.731337,0.636768
0.778942,0.449709,0.731264,0.636704
0.778865,0.449697,0.731191,0.63664
0.778787,0.449684,0.731118,0.636577
0.778709,0.449672,0.731045,0.636513
0.778631,0.44966,0.730972,0.636449
0.778553,0.449647,0.730898,0.636386
0.778475,0.449635,0.730825,0.636322
0.778397,0.449623,0.730752,0.636258
0.778319,0.44961,0.730679,0.636195
0.778242,0.449598,0.730606,0.636131
0.778164,0.449586,0.730533,0.636067
0.778086,0.449573,0.73046,0.636004
0.778008,0.449561,0.730387,0.63594
0.77793,0.449549,0.730314,0.635877
0.777853,0.449536,0.730241,0.635813
0.777775,0.449524,0.730168,0.635749
0.777697,0.449512,0.730095,0.635686
0.777619,0.449499,0.730022,0.635622
0.777542,0.449487,0.729949,0.635559
0.777464,0.449475,0.729876,0.635495
0.777386,0.449462,0.729803,0.635432
0.777308,0.44945,0.72973,0.635368
0.777231,0.449438,0.729657,0.635305
0.777153,0.449425,0.729584,0.635241
0.777075,0.449413,0.729511,0.635178
0.776997,0.449401,0.729438,0.635114
0.77692,0.449388,0.729365,0.63505
0.776842,0.449376,0.729292,0.634987
0.776764,0.449364,0.729219,0.634923
0.776687,0.449351,0.729146,0.63486
0.776609,0.449339,0.729073,0.634796
0.776531,0.449327,0.729001,0.634733
0.776454,0.449314,0.728928,0.63467
0.776376,0.449302,0.728855,0.634606
0.776298,0.44929,0.728782,0.634543
0.776221,0.449277,0.728709,0.634479
0.776143,0.449265,0.728636,0.634416
0.776066,0.449253,0.728563,0.634352
0.775988,0.44924,0.72849,0.634289
0.77591,0.449228,0.728418,0.634225
0.775833,0.449216,0.728345,0.634162
0.775755,0.449203,0.728272,0.634099
0.775678,0.449191,0.728199,0.634035
0.7756,0.449179,0.728126,0.633972
0.775522,0.449166,0.728053,0.633908
0.775445,0.449154,0.727981,0.633845
0.775367,0.449142,0.727908,0.633782
0.77529,0.449129,0.727835,0.633718
0.775212,0.449117,0.727762,0.633655
0.775135,0.449105,0.727689,0.633591
0.775057,0.449093,0.727617,0.633528
0.77498,0.44908,0.727544,0.633465
0.774902,0.449068,0.727471,0.633401
0.774825,0.449056,0.727398,0.633338
0.774747,0.449043,0.727326,0.633275
0.77467,0.449031,0.727253,0.633211
0.774592,0.449019,0.72718,0.633148
0.774515,0.449006,0.727107,0.633085
0.774437,0.448994,0.727035,0.633021
0.77436,0.448982,0.726962,0.632958
0.774283,0.448969,0.726889,0.632895
0.774205,0.448957,0.726817,0.632832
0.774128,0.448945,0.726744,0.632768
0.77405,0.448932,0.726671,0.632705
0.773973,0.44892,0.726599,0.632642
0.773895,0.448908,0.726526,0.632578
0.773818,0.448895,0.726453,0.632515
0.773741,0.448883,0.726381,0.632452
0.773663,0.448871,0.726308,0.632389
0.773586,0.448859,0.726235,0.632325
0.773509,0.448846,0.726163,0.632262
0.773431,0.448834,0.72609,0.632199
0.773354,0.448822,0.726018,0.632136
0.773277,0.448809,0.725945,0.632073
0.773199,0.448797,0.725872,0.632009
0.773122,0.448785,0.7258,0.631946
0.773045,0.448772,0.725727,0.631883
0.772967,0.44876,0.725655,0.63182
0.77289,0.448748,0.725582,0.631757
0.772813,0.448735,0.72551,0.631693
0.772735,0.448723,0.725437,0.63163
0.772658,0.448711,0.725364,0.631567
0.772581,0.448698,0.725292,0.631504
0.772504,0.448686,0.725219,0.631441
0.772426,0.448674,0.725147,0.631378
0.772349,0.448662,0.725074,0.631315
0.772272,0.448649,0.725002,0.631251
0.772195,0.448637,0.724929,0.631188
0.772117,0.448625,0.724857,0.631125
0.77204,0.448612,0.724784,0.631062
0.771963,0.4486,0.724712,0.630999
0.771886,0.448588,0.724639,0.630936
0.771809,0.448575,0.724567,0.630873
0.771731,0.448563,0.724494,0.63081
0.771654,0.448551,0.724422,0.630747
0.771577,0.448538,0.72435,0.630683
0.7715,0.448526,0.724277,0.63062
0.771423,0.448514,0.724205,0.630557
0.771346,0.448502,0.724132,0.630494
0.771269,0.448489,0.72406,0.630431
0.771191,0.448477,0.723987,0.630368
0.771114,0.448465,0.723915,0.630305
0.771037,0.448452,0.723843,0.630242
0.77096,0.44844,0.72377,0.630179
0.770883,0.448428,0.723698,0.630116
0.770806,0.448415,0.723626,0.630053
0.770729,0.448403,0.723553,0.62999
0.770652,0.448391,0.723481,0.629927
0.770575,0.448379,0.723408,0.629864
0.770498,0.448366,0.723336,0.629801
0.770421,0.448354,0.723264,0.629738
0.770344,0.448342,0.723191,0.629675
0.770267,0.448329,0.723119,0.629612
0.770189,0.448317,0.723047,0.629549
0.770112,0.448305,0.722975,0.629486
0.770035,0.448292,0.722902,0.629423
0.769958,0.44828,0.72283,0.62936
0.769881,0.448268,0.722758,0.629297
0.769804,0.448256,0.722685,0.629235
0.769727,0.448243,0.722613,0.629172
0.769651,0.448231,0.722541,0.629109
0.769574,0.448219,0.722469,0.629046
0.769497,0.448206,0.722396,0.628983
0.76942,0.448194,0.722324,0.62892
0.769343,0.448182,0.722252,0.628857
0.769266,0.44817,0.72218,0.628794
0.769189,0.448157,0.722107,0.628731
0.769112,0.448145,0.722035,0.628668
0.769035,0.448133,0.721963,0.628606
0.768958,0.44812,0.721891,0.628543
0.768881,0.448108,0.721819,0.62848
0.768804,0.448096,0.721746,0.628417
0.768727,0.448083,0.721674,0.628354
0.768651,0.448071,0.721602,0.628291
0.768574,0.448059,0.72153,0.628228
0.768497,0.448047,0.721458,0.628166
0.76842,0.448034,0.721386,0.628103
0.768343,0.448022,0.721314,0.62804
0.768266,0.44801,0.721241,0.627977
0.768189,0.447997,0.721169,0.627914
0.768113,0.447985,0.721097,0.627852
0.768036,0.447973,0.721025,0.627789
0.767959,0.447961,0.720953,0.627726
0.767882,0.447948,0.720881,0.627663
0.767805,0.447936,0.720809,0.627601
0.767729,0.447924,0.720737,0.627538
0.767652,0.447911,0.720665,0.627475
0.767575,0.447899,0.720593,0.627412
0.767498,0.447887,0.72052,0.62735
0.767422,0.447875,0.720448,0.627287
0.767345,0.447862,0.720376,0.627224
0.767268,0.44785,0.720304,0.627161
0.767191,0.447838,0.720232,0.627099
0.767115,0.447825,0.72016,0.627036
0.767038,0.447813,0.720088,0.626973
0.766961,0.447801,0.720016,0.626911
0.766885,0.447789,0.719944,0.626848
0.766808,0.447776,0.719872,0.626785
0.766731,0.447764,0.7198,0.626722
0.766655,0.447752,0.719728,0.62666
0.766578,0.447739,0.719656,0.626597
0.766501,0.447727,0.719584,0.626534
0.766425,0.447715,0.719512,0.626472
0.766348,0.447703,0.71944,0.626409
0.766271,0.44769,0.719369,0.626347
0.766195,0.447678,0.719297,0.626284
0.766118,0.447666,0.719225,0.626221
0.766041,0.447653,0.719153,0.626159
0.765965,0.447641,0.719081,0.626096
0.765888,0.447629,0.719009,0.626033
0.765812,0.447617,0.718937,0.625971
0.765735,0.447604,0.718865,0.625908
0.765659,0.447592,0.718793,0.625846
0.765582,0.44758,0.718721,0.625783
0.765505,0.447567,0.718649,0.62572
0.765429,0.447555,0.718578,0.625658
0.765352,0.447543,0.718506,0.625595
0.765276,0.447531,0.718434,0.625533
0.765199,0.447518,0.718362,0.62547
0.765123,0.447506,0.71829,0.625408
0.765046,0.447494,0.718218,0.625345
0.76497,0.447482,0.718147,0.625283
0.764893,0.447469,0.718075,0.62522
0.764817,0.447457,0.718003,0.625158
0.76474,0.447445,0.717931,0.625095
0.764664,0.447432,0.717859,0.625033
0.764587,0.44742,0.717788,0.62497
0.764511,0.447408,0.717716,0.624908
0.764434,0.447396,0.717644,0.624845
0.764358,0.447383,0.717572,0.624783
0.764282,0.447371,0.717501,0.62472
0.764205,0.447359,0.717429,0.624658
0.764129,0.447347,0.717357,0.624595
0.764052,0.447334,0.717285,0.624533
0.763976,0.447322,0.717214,0.62447
0.763899,0.44731,0.717142,0.624408
0.763823,0.447297,0.71707,0.624345
0.763747,0.447285,0.716998,0.624283
0.76367,0.447273,0.716927,0.62422
0.763594,0.447261,0.716855,0.624158
0.763518,0.447248,0.716783,0.624096
0.763441,0.447236,0.716712,0.624033
0.763365,0.447224,0.71664,0.623971
0.763289,0.447212,0.716568,0.623908
0.763212,0.447199,0.716497,0.623846
0.763136,0.447187,0.716425,0.623784
0.76306,0.447175,0.716353,0.623721
0.762983,0.447163,0.716282,0.623659
0.762907,0.44715,0.71621,0.623597
0.762831,0.447138,0.716138,0.623534
0.762754,0.447126,0.716067,0.623472
0.762678,0.447113,0.715995,0.623409
0.762602,0.447101,0.715924,0.623347
0.762526,0.447089,0.715852,0.623285
0.762449,0.447077,0.71578,0.623222
0.762373,0.447064,0.715709,0.62316
0.762297,0.447052,0.715637,0.623098
0.762221,0.44704,0.715566,0.623036
0.762144,0.447028,0.715494,0.622973
0.762068,0.447015,0.715423,0.622911
0.761992,0.447003,0.715351,0.622849
0.761916,0.446991,0.71528,0.622786
0.76184,0.446979,0.715208,0.622724
0.761763,0.446966,0.715137,0.622662
0.761687,0.446954,0.715065,0.6226
0.761611,0.446942,0.714994,0.622537
0.761535,0.446929,0.714922,0.622475
0.761459,0.446917,0.714851,0.622413
0.761383,0.446905,0.714779,0.622351
0.761306,0.446893,0.714708,0.622288
0.76123,0.44688,0.714636,0.622226
0.761154,0.446868,0.714565,0.622164
0.761078,0.446856,0.714493,0.622102
0.761002,0.446844,0.714422,0.622039
0.760926,0.446831,0.71435,0.621977
0.76085,0.446819,0.714279,0.621915
0.760774,0.446807,0.714207,0.621853
0.760698,0.446795,0.714136,0.621791
0.760622,0.446782,0.714065,0.621728
0.760546,0.44677,0.713993,0.621666
0.760469,0.446758,0.713922,0.621604
0.760393,0.446746,0.71385,0.621542
0.760317,0.446733,0.713779,0.62148
0.760241,0.446721,0.713708,0.621418
0.760165,0.446709,0.713636,0.621356
0.760089,0.446697,0.713565,0.621293
0.760013,0.446684,0.713494,0.621231
0.759937,0.446672,0.713422,0.621169
0.759861,0.44666,0.713351,0.621107
0.759785,0.446648,0.71328,0.621045
0.759709,0.446635,0.713208,0.620983
0.759633,0.446623,0.713137,0.620921
0.759557,0.446611,0.713066,0.620859
0.759481,0.446599,0.712994,0.620797
0.759405,0.446586,0.712923,0.620734
0.75933,0.446574,0.712852,0.620672
0.759254,0.446562,0.71278,0.62061
0.759178,0.44655,0.712709,0.620548
0.759102,0.446537,0.712638,0.620486
0.759026,0.446525,0.712567,0.620424
0.75895,0.446513,0.712495,0.620362
0.758874,0.446501,0.712424,0.6203
0.758798,0.446488,0.712353,0.620238
0.758722,0.446476,0.712282,0.620176
0.758646,0.446464,0.71221,0.620114
0.758571,0.446452,0.712139,0.620052
0.758495,0.446439,0.712068,0.61999
0.758419,0.446427,0.711997,0.619928
0.758343,0.446415,0.711925,0.619866
0.758267,0.446403,0.711854,0.619804
0.758191,0.44639,0.711783,0.619742
0.758116,0.446378,0.711712,0.61968
0.75804,0.446366,0.711641,0.619618
0.757964,0.446354,0.71157,0.619556
0.757888,0.446341,0.711498,0.619494
0.757812,0.446329,0.711427,0.619432
0.757737,0.446317,0.711356,0.61937
0.757661,0.446305,0.711285,0.619308
0.757585,0.446292,0.711214,0.619246
0.757509,0.44628,0.711143,0.619184
0.757433,0.446268,0.711072,0.619123
0.757358,0.446256,0.711001,0.619061
0.757282,0.446243,0.710929,0.618999
0.757206,0.446231,0.710858,0.618937
0.757131,0.446219,0.710787,0.618875
0.757055,0.446207,0.710716,0.618813
0.756979,0.446194,0.710645,0.618751
0.756903,0.446182,0.710574,0.618689
0.756828,0.44617,0.710503,0.618627
0.756752,0.446158,0.710432,0.618566
0.756676,0.446146,0.710361,0.618504
0.756601,0.446133,0.731599,0.618442
0.756147,0.446121,0.731525,0.61838
0.755693,0.446109,0.731452,0.618318
0.75524,0.446097,0.731379,0.618256
0.754787,0.446084,0.731306,0.618195
0.754334,0.446072,0.731233,0.618133
0.753881,0.44606,0.73116,0.618071
0.753429,0.446048,0.731087,0.618009
0.752977,0.446035,0.731013,0.617947
0.752525,0.446023,0.73094,0.617885
0.752074,0.446011,0.730867,0.617824
0.751623,0.445999,0.730794,0.617762
0.751172,0.445986,0.730721,0.6177
0.750721,0.445974,0.730648,0.617638
0.750271,0.445962,0.730575,0.617577
0.74982,0.44595,0.730502,0.617515
0.749371,0.445938,0.730429,0.617453
0.748921,0.445925,0.730356,0.617391
0.748472,0.445913,0.730283,0.61733
0.748023,0.445901,0.73021,0.617268
0.747574,0.445889,0.730137,0.617206
0.747125,0.445876,0.730064,0.617144
0.746677,0.445864,0.729991,0.617083
0.746229,0.445852,0.729918,0.617021
0.745781,0.44584,0.729845,0.616959
0.745334,0.445827,0.729772,0.616898
0.744887,0.445815,0.729699,0.616836
0.74444,0.445803,0.729626,0.616774
0.743993,0.445791,0.729553,0.616713
0.743547,0.445779,0.72948,0.616651
0.743101,0.445766,0.729407,0.616589
0.743027,0.445754,0.729334,0.616528
0.742952,0.445742,0.729261,0.616466
0.742878,0.44573,0.729188,0.616404
0.742804,0.445717,0.729115,0.616343
0.742729,0.445705,0.729042,0.616281
0.742655,0.445693,0.728969,0.616219
0.742581,0.445681,0.728897,0.616158
0.742507,0.445668,0.728824,0.616096
0.742432,0.445656,0.728751,0.616035
0.742358,0.445644,0.728678,0.615973
0.742284,0.445632,0.728605,0.615911
0.74221,0.44562,0.728532,0.61585
0.742135,0.445607,0.728459,0.615788
0.742061,0.445595,0.728386,0.615727
0.741987,0.445583,0.728314,0.615665
0.741913,0.445571,0.728241,0.615603
0.741839,0.445558,0.728168,0.615542
0.741764,0.445546,0.728095,0.61548
0.74169,0.445534,0.728022,0.615419
0.741616,0.445522,0.72795,0.615357
0.741542,0.44551,0.727877,0.615296
0.741468,0.445497,0.727804,0.615234
0.741394,0.445485,0.727731,0.615173
0.741319,0.445473,0.727658,0.615111
0.741245,0.445461,0.727586,0.61505
0.741171,0.445448,0.727513,0.614988
0.741097,0.445436,0.72744,0.614927
0.741023,0.445424,0.727367,0.614865
0.740949,0.445412,0.727295,0.614804
0.740875,0.4454,0.727222,0.614742
0.740801,0.445387,0.727149,0.614681
0.740727,0.445375,0.727076,0.614619
0.740653,0.445363,0.727004,0.614558
0.740578,0.445351,0.726931,0.614496
0.740504,0.445338,0.726858,0.614435
0.74043,0.445326,0.726786,0.614373
0.740356,0.445314,0.726713,0.614312
0.740282,0.445302,0.72664,0.61425
0.740208,0.44529,0.726568,0.614189
0.740134,0.445277,0.726495,0.614128
0.74006,0.445265,0.726422,0.614066
0.739986,0.445253,0.72635,0.614005
0.739912,0.445241,0.726277,0.613943
0.739838,0.445229,0.726204,0.613882
0.739764,0.445216,0.726132,0.613821
0.73969,0.445204,0.726059,0.613759
0.739616,0.445192,0.725987,0.613698
0.739542,0.44518,0.725914,0.613637
0.739468,0.445167,0.725841,0.613575
0.739394,0.445155,0.725769,0.613514
0.739321,0.445143,0.725696,0.613452
0.739247,0.445131,0.725624,0.613391
0.739173,0.445119,0.725551,0.61333
0.739099,0.445106,0.725479,0.613268
0.739025,0.445094,0.725406,0.613207
0.738951,0.445082,0.725333,0.613146
0.738877,0.44507,0.725261,0.613084
0.738803,0.445058,0.725188,0.613023
0.738729,0.445045,0.725116,0.612962
0.738655,0.445033,0.725043,0.612901
0.738582,0.445021,0.724971,0.612839
0.738508,0.445009,0.724898,0.612778
0.738434,0.444997,0.724826,0.612717
0.73836,0.444984,0.724753,0.612655
0.738286,0.444972,0.724681,0.612594
0.738212,0.44496,0.724608,0.612533
0.738138,0.444948,0.724536,0.612472
0.738065,0.444936,0.724464,0.61241
0.737991,0.444923,0.724391,0.612349
0.737917,0.444911,0.724319,0.612288
0.737843,0.444899,0.724246,0.612227
0.737769,0.444887,0.724174,0.612165
0.737696,0.444875,0.724101,0.612104
0.737622,0.444862,0.724029,0.612043
0.737548,0.44485,0.723957,0.611982
0.737474,0.444838,0.723884,0.611921
0.737401,0.444826,0.723812,0.611859
0.737327,0.444813,0.723739,0.611798
0.737253,0.444801,0.723667,0.611737
0.737179,0.444789,0.723595,0.611676
0.737106,0.444777,0.723522,0.611615
0.737032,0.444765,0.72345,0.611554
0.736958,0.444752,0.723378,0.611492
0.736885,0.44474,0.723305,0.611431
0.736811,0.444728,0.723233,0.61137
0.736737,0.444716,0.723161,0.611309
0.736664,0.444704,0.723088,0.611248
0.73659,0.444691,0.723016,0.611187
0.736516,0.444679,0.722944,0.611126
0.736443,0.444667,0.722871,0.611065
0.736369,0.444655,0.722799,0.611003
0.736295,0.444643,0.722727,0.610942
0.736222,0.44463,0.722655,0.610881
0.736148,0.444618,0.722582,0.61082
0.736074,0.444606,0.72251,0.610759
0.736001,0.444594,0.722438,0.610698
0.735927,0.444582,0.722366,0.610637
0.735854,0.44457,0.722293,0.610576
0.73578,0.444557,0.722221,0.610515
0.735707,0.444545,0.722149,0.610454
0.735633,0.444533,0.722077,0.610393
0.735559,0.444521,0.722004,0.610332
0.735486,0.444509,0.721932,0.610271
0.735412,0.444496,0.72186,0.61021
0.735339,0.444484,0.721788,0.610149
0.735265,0.444472,0.721716,0.610088
0.735192,0.44446,0.721644,0.610027
0.735118,0.444448,0.721571,0.609966
0.735045,0.444435,0.721499,0.609905
0.734971,0.444423,0.721427,0.609844
0.734898,0.444411,0.721355,0.609783
0.734824,0.444399,0.721283,0.609722
0.734751,0.444387,0.721211,0.609661
0.734677,0.444374,0.721139,0.6096
0.734604,0.444362,0.721066,0.609539
0.73453,0.44435,0.720994,0.609478
0.734457,0.444338,0.720922,0.609417
0.734383,0.444326,0.72085,0.609356
0.73431,0.444313,0.720778,0.609295
0.734237,0.444301,0.720706,0.609234
0.734163,0.444289,0.720634,0.609173
0.73409,0.444277,0.720562,0.609112
0.734016,0.444265,0.72049,0.609051
0.733943,0.444253,0.720418,0.60899
0.733869,0.44424,0.720346,0.608929
0.733796,0.444228,0.720274,0.608869
0.733723,0.444216,0.720202,0.608808
0.733649,0.444204,0.72013,0.608747
0.733576,0.444192,0.720058,0.608686
0.733503,0.444179,0.719986,0.608625
0.733429,0.444167,0.719914,0.608564
0.733356,0.444155,0.719842,0.608503
0.733283,0.444143,0.71977,0.608442
0.733209,0.444131,0.719698,0.608382
0.733136,0.444119,0.719626,0.608321
0.733063,0.444106,0.719554,0.60826
0.732989,0.444094,0.719482,0.608199
0.732916,0.444082,0.71941,0.608138
0.732843,0.44407,0.719338,0.608077
0.732769,0.444058,0.719266,0.608017
0.732696,0.444045,0.719194,0.607956
0.732623,0.444033,0.719122,0.607895
0.73255,0.444021,0.71905,0.607834
0.732476,0.444009,0.718978,0.607774
0.732403,0.443997,0.718906,0.607713
0.73233,0.443985,0.718834,0.607652
0.732257,0.443972,0.718763,0.607591
0.732183,0.44396,0.718691,0.60753
0.73211,0.443948,0.718619,0.60747
0.732037,0.443936,0.718547,0.607409
0.731964,0.443924,0.718475,0.607348
0.731891,0.443911,0.718403,0.607287
0.731817,0.443899,0.718331,0.607227
0.731744,0.443887,0.71826,0.607166
0.731671,0.443875,0.718188,0.607105
0.731598,0.443863,0.718116,0.607045
0.731525,0.443851,0.718044,0.606984
0.731452,0.443838,0.717972,0.606923
0.731378,0.443826,0.717901,0.606862
0.731305,0.443814,0.717829,0.606802
0.731232,0.443802,0.717757,0.606741
0.731159,0.44379,0.717685,0.60668
0.731086,0.443778,0.717613,0.60662
0.731013,0.443765,0.717542,0.606559
0.73094,0.443753,0.71747,0.606498
0.730867,0.443741,0.717398,0.606438
0.730794,0.443729,0.717326,0.606377
0.73072,0.443717,0.717255,0.606317
0.730647,0.443704,0.717183,0.606256
0.730574,0.443692,0.717111,0.606195
