energy,productivity,fun,hunger
0.445425,0.643482,0.86396,0.9999
0.445381,0.643415,0.863874,0.9998
0.445113,0.643349,0.863788,0.9997
0.444846,0.643282,0.863701,0.9996
0.44458,0.643216,0.863615,0.9995
0.444313,0.64315,0.863529,0.9994
0.444046,0.643083,0.863442,0.9993
0.44378,0.643017,0.863356,0.9992
0.443514,0.64295,0.863269,0.9991
0.443248,0.642884,0.863183,0.999
0.442982,0.642818,0.863097,0.998901
0.442716,0.642751,0.863011,0.998801
0.44245,0.642685,0.862924,0.998701
0.442185,0.642619,0.862838,0.998601
0.441919,0.642552,0.862752,0.998501
0.441654,0.642486,0.862665,0.998401
0.441389,0.64242,0.862579,0.998301
0.441125,0.642353,0.862493,0.998202
0.44086,0.642287,0.862407,0.998102
0.440595,0.642221,0.86232,0.998002
0.440331,0.642154,0.862234,0.997902
0.440067,0.642088,0.862148,0.997802
0.439803,0.642022,0.862062,0.997703
0.439539,0.641955,0.861975,0.997603
0.439275,0.641889,0.861889,0.997503
0.439012,0.641823,0.861803,0.997403
0.438748,0.641757,0.861717,0.997304
0.438485,0.64169,0.861631,0.997204
0.438222,0.641624,0.861545,0.997104
0.437959,0.641558,0.861458,0.997004
0.437696,0.641492,0.861372,0.996905
0.437434,0.641425,0.861286,0.996805
0.437171,0.641359,0.8612,0.996705
0.436909,0.641293,0.861114,0.996606
0.436647,0.641227,0.861028,0.996506
0.436385,0.641161,0.860942,0.996406
0.436123,0.641094,0.860856,0.996307
0.435862,0.641028,0.86077,0.996207
0.4356,0.640962,0.860683,0.996107
0.435339,0.640896,0.860597,0.996008
0.435078,0.64083,0.860511,0.995908
0.434817,0.640764,0.860425,0.995809
0.434556,0.640697,0.860339,0.995709
0.434295,0.640631,0.860253,0.995609
0.434034,0.640565,0.860167,0.99551
0.433774,0.640499,0.860081,0.99541
0.433514,0.640433,0.859995,0.995311
0.433254,0.640367,0.859909,0.995211
0.432994,0.640301,0.859823,0.995112
0.432734,0.640235,0.859737,0.995012
0.432258,0.640809,0.857932,0.994913
0.431783,0.641383,0.85613,0.994813
0.431308,0.641958,0.854333,0.994714
0.430833,0.642534,0.852539,0.994614
0.430359,0.64311,0.850749,0.994515
0.429886,0.643687,0.848962,0.994415
0.429413,0.644264,0.84718,0.994316
0.428941,0.644842,0.845401,0.994216
0.428469,0.64542,0.843625,0.994117
0.427998,0.645999,0.841854,0.994018
0.427527,0.646578,0.840086,0.993918
0.427057,0.647158,0.838322,0.993819
0.426587,0.647738,0.836562,0.993719
0.426118,0.648319,0.834805,0.99362
0.425649,0.6489,0.833052,0.993521
0.425181,0.649482,0.831303,0.993421
0.424713,0.650064,0.829558,0.993322
0.424246,0.650647,0.827816,0.993223
0.42378,0.65123,0.826077,0.993123
0.423314,0.651814,0.824343,0.993024
0.422848,0.652399,0.822612,0.992925
0.422383,0.652984,0.820885,0.992826
0.421918,0.653569,0.819161,0.992726
0.421454,0.654155,0.817441,0.992627
0.420991,0.654742,0.815724,0.992528
0.420528,0.655329,0.814012,0.992428
0.420065,0.655917,0.812302,0.992329
0.419603,0.656505,0.810597,0.99223
0.419141,0.657093,0.808894,0.992131
0.41868,0.657683,0.807196,0.992032
0.41822,0.658272,0.805501,0.991932
0.41776,0.658863,0.80381,0.991833
0.4173,0.659453,0.802122,0.991734
0.416841,0.660045,0.800438,0.991635
0.416383,0.660636,0.798757,0.991536
0.415925,0.661229,0.79708,0.991436
0.415468,0.661822,0.795406,0.991337
0.415011,0.662415,0.793736,0.991238
0.414554,0.663009,0.792069,0.991139
0.414098,0.663604,0.790406,0.99104
0.413643,0.664199,0.788746,0.990941
0.413188,0.664794,0.78709,0.990842
0.412733,0.66539,0.785437,0.990743
0.412279,0.665987,0.783788,0.990644
0.411826,0.666584,0.782142,0.990545
0.411373,0.667182,0.7805,0.990445
0.41092,0.66778,0.778861,0.990346
0.410468,0.668379,0.777225,0.990247
0.410017,0.668978,0.775593,0.990148
0.409566,0.669578,0.773965,0.990049
0.409115,0.670178,0.77234,0.98995
0.408665,0.670779,0.770718,0.989851
0.408216,0.671381,0.769099,0.989752
0.407767,0.671983,0.767485,0.989653
0.407318,0.672585,0.765873,0.989554
0.40687,0.673188,0.764265,0.989455
0.406423,0.673792,0.76266,0.989357
0.405976,0.674396,0.761059,0.989258
0.405529,0.675001,0.75946,0.989159
0.405083,0.675606,0.757866,0.98906
0.404638,0.676212,0.756274,0.988961
0.404193,0.676818,0.754686,0.988862
0.403748,0.677425,0.753102,0.988763
0.403304,0.678033,0.75152,0.988664
0.40286,0.67864,0.749942,0.988565
0.402417,0.679249,0.748368,0.988466
0.401975,0.679858,0.746796,0.988368
0.401533,0.680468,0.745228,0.988269
0.401091,0.681078,0.743663,0.98817
0.40065,0.681688,0.742102,0.988071
0.400209,0.6823,0.740543,0.987972
0.399769,0.682912,0.738988,0.987874
0.399329,0.683524,0.737437,0.987775
0.39889,0.684137,0.735888,0.987676
0.398451,0.68475,0.734343,0.987577
0.398013,0.685364,0.732801,0.987478
0.397575,0.685979,0.731262,0.98738
0.397138,0.686594,0.729727,0.987281
0.396701,0.687209,0.728194,0.987182
0.396265,0.687826,0.726665,0.987083
0.395829,0.688442,0.72514,0.986985
0.395394,0.68906,0.723617,0.986886
0.394959,0.689678,0.722097,0.986787
0.394524,0.690296,0.720581,0.986689
0.39409,0.690915,0.719068,0.98659
0.393657,0.691534,0.717558,0.986491
0.393224,0.692155,0.716051,0.986393
0.392791,0.692775,0.714548,0.986294
0.392359,0.693396,0.713047,0.986195
0.391928,0.694018,0.71155,0.986097
0.391497,0.69464,0.710056,0.985998
0.391066,0.695263,0.708565,0.9859
0.390636,0.695887,0.707077,0.985801
0.390206,0.696511,0.705593,0.985702
0.389777,0.697135,0.704111,0.985604
0.389348,0.69776,0.702632,0.985505
0.38892,0.698386,0.701157,0.985407
0.388492,0.699012,0.699685,0.985308
0.388065,0.699639,0.698216,0.98521
0.387638,0.700266,0.69675,0.985111
0.387212,0.700894,0.695286,0.985013
0.386786,0.701523,0.693827,0.984914
0.386361,0.702152,0.69237,0.984816
0.385936,0.702781,0.690916,0.984717
0.385511,0.703411,0.689465,0.984619
0.385087,0.704042,0.688017,0.98452
0.384664,0.704673,0.686573,0.984422
0.38424,0.705305,0.685131,0.984323
0.383818,0.705938,0.683692,0.984225
0.383396,0.706571,0.682257,0.984127
0.382974,0.707204,0.680824,0.984028
0.382553,0.707838,0.679394,0.98393
0.382132,0.708473,0.677968,0.983831
0.381712,0.709108,0.676544,0.983733
0.381292,0.709744,0.675124,0.983635
0.380872,0.71038,0.673706,0.983536
0.380454,0.711017,0.672291,0.983438
0.380035,0.711655,0.67088,0.98334
0.379617,0.712293,0.669471,0.983241
0.3792,0.712932,0.668065,0.983143
0.378782,0.713571,0.666662,0.983045
0.378366,0.714211,0.665263,0.982946
0.37795,0.714851,0.663866,0.982848
0.377534,0.715492,0.662472,0.98275
0.377119,0.716134,0.661081,0.982651
0.376704,0.716776,0.659692,0.982553
0.37629,0.717419,0.658307,0.982455
0.375876,0.718062,0.656925,0.982357
0.375462,0.718706,0.655546,0.982258
0.375049,0.71935,0.654169,0.98216
0.374637,0.719995,0.652795,0.982062
0.374225,0.720641,0.651425,0.981964
0.373813,0.721287,0.650057,0.981866
0.373402,0.721934,0.648692,0.981767
0.372991,0.722581,0.64733,0.981669
0.372581,0.723229,0.64597,0.981571
0.372171,0.723877,0.644614,0.981473
0.371762,0.724527,0.64326,0.981375
0.371353,0.725176,0.64191,0.981277
0.370944,0.725826,0.640562,0.981178
0.370536,0.726477,0.639217,0.98108
0.370129,0.727129,0.637875,0.980982
0.369722,0.727781,0.636535,0.980884
0.369315,0.728433,0.635199,0.980786
0.368909,0.729086,0.633865,0.980688
0.368503,0.72974,0.632534,0.98059
0.368098,0.730394,0.631206,0.980492
0.367693,0.731049,0.62988,0.980394
0.367289,0.731705,0.628558,0.980296
0.366885,0.732361,0.627238,0.980198
0.366481,0.733018,0.625921,0.9801
0.366078,0.733675,0.624606,0.980002
0.365675,0.734333,0.623295,0.979904
0.365273,0.734991,0.621986,0.979806
0.364871,0.73565,0.62068,0.979708
0.36447,0.73631,0.619377,0.97961
0.364069,0.73697,0.618076,0.979512
0.363669,0.737631,0.616778,0.979414
0.363269,0.738292,0.615483,0.979316
0.362869,0.738954,0.614191,0.979218
0.36247,0.739617,0.612901,0.97912
0.362071,0.74028,0.611614,0.979022
0.361673,0.740944,0.61033,0.978924
0.361275,0.741608,0.609048,0.978826
0.360878,0.742273,0.607769,0.978728
0.360481,0.742939,0.606493,0.978631
0.360085,0.743605,0.60522,0.978533
0.359688,0.744272,0.603949,0.978435
0.359293,0.744939,0.602681,0.978337
0.358898,0.745607,0.601415,0.978239
0.358503,0.746276,0.600152,0.978141
0.358109,0.746945,0.598892,0.978044
0.357715,0.747615,0.597635,0.977946
0.357679,0.747537,0.597575,0.977848
0.357643,0.74746,0.597515,0.97775
0.357607,0.747383,0.597455,0.977652
0.357572,0.747306,0.597395,0.977555
0.357536,0.747229,0.597336,0.977457
0.3575,0.747152,0.597276,0.977359
0.357464,0.747074,0.597216,0.977261
0.357429,0.746997,0.597157,0.977164
0.357393,0.74692,0.597097,0.977066
0.357357,0.746843,0.597037,0.976968
0.357321,0.746766,0.596977,0.976871
0.357286,0.746689,0.596918,0.976773
0.35725,0.746612,0.596858,0.976675
0.357214,0.746535,0.596798,0.976577
0.357179,0.746458,0.596739,0.97648
0.357143,0.746381,0.596679,0.976382
0.357107,0.746304,0.596619,0.976285
0.357071,0.746226,0.59656,0.976187
0.357036,0.746149,0.5965,0.976089
0.357,0.746072,0.59644,0.975992
0.356964,0.745995,0.596381,0.975894
0.356929,0.745918,0.596321,0.975796
0.356893,0.745841,0.596261,0.975699
0.356857,0.745764,0.596202,0.975601
0.356821,0.745687,0.596142,0.975504
0.356786,0.74561,0.596083,0.975406
0.35675,0.745533,0.596023,0.975309
0.356714,0.745456,0.595963,0.975211
0.356679,0.745379,0.595904,0.975114
0.356643,0.745303,0.595844,0.975016
0.356607,0.745226,0.595785,0.974919
0.356572,0.745149,0.595725,0.974821
0.356536,0.745072,0.595665,0.974724
0.3565,0.744995,0.595606,0.974626
0.356465,0.744918,0.595546,0.974529
0.356429,0.744841,0.595487,0.974431
0.356394,0.744764,0.595427,0.974334
0.356358,0.744687,0.595368,0.974236
0.356322,0.74461,0.595308,0.974139
0.356287,0.744533,0.595249,0.974042
0.356251,0.744457,0.595189,0.973944
0.356215,0.74438,0.59513,0.973847
0.35618,0.744303,0.59507,0.973749
0.356144,0.744226,0.595011,0.973652
0.356109,0.744149,0.594951,0.973555
0.356073,0.744072,0.594892,0.973457
0.356037,0.743996,0.594832,0.97336
0.356002,0.743919,0.594773,0.973263
0.355966,0.743842,0.594713,0.973165
0.355931,0.743765,0.594654,0.973068
0.355895,0.743688,0.594594,0.972971
0.355859,0.743612,0.594535,0.972873
0.355824,0.743535,0.594475,0.972776
0.355788,0.743458,0.594416,0.972679
0.355753,0.743381,0.594356,0.972582
0.355717,0.743305,0.594297,0.972484
0.355681,0.743228,0.594238,0.972387
0.355646,0.743151,0.594178,0.97229
0.35561,0.743074,0.594119,0.972193
0.355575,0.742998,0.594059,0.972095
0.355539,0.742921,0.594,0.971998
0.355504,0.742844,0.59394,0.971901
0.355468,0.742768,0.593881,0.971804
0.355433,0.742691,0.593822,0.971707
0.355397,0.742614,0.593762,0.971609
0.355361,0.742538,0.593703,0.971512
0.355326,0.742461,0.593644,0.971415
0.35529,0.742384,0.593584,0.971318
0.355255,0.742308,0.593525,0.971221
0.355219,0.742231,0.593465,0.971124
0.355184,0.742154,0.593406,0.971027
0.355148,0.742078,0.593347,0.970929
0.355113,0.742001,0.593287,0.970832
0.355077,0.741925,0.593228,0.970735
0.355042,0.741848,0.593169,0.970638
0.355006,0.741771,0.593109,0.970541
0.354971,0.741695,0.59305,0.970444
0.354935,0.741618,0.592991,0.970347
0.3549,0.741542,0.592932,0.97025
0.354864,0.741465,0.592872,0.970153
0.354829,0.741389,0.592813,0.970056
0.354793,0.741312,0.592754,0.969959
0.354758,0.741236,0.592694,0.969862
0.354722,0.741159,0.592635,0.969765
0.354687,0.741083,0.592576,0.969668
0.354651,0.741006,0.592517,0.969571
0.354616,0.740929,0.592457,0.969474
0.35458,0.740853,0.592398,0.969377
0.354545,0.740777,0.592339,0.96928
0.35451,0.7407,0.59228,0.969183
0.354474,0.740624,0.59222,0.969086
0.354439,0.740547,0.592161,0.968989
0.354403,0.740471,0.592102,0.968893
0.354368,0.740394,0.592043,0.968796
0.354332,0.740318,0.591984,0.968699
0.354297,0.740241,0.591924,0.968602
0.354261,0.740165,0.591865,0.968505
0.354226,0.740089,0.591806,0.968408
0.354191,0.740012,0.591747,0.968311
0.354155,0.739936,0.591688,0.968215
0.35412,0.739859,0.591628,0.968118
0.354084,0.739783,0.591569,0.968021
0.354049,0.739707,0.59151,0.967924
0.354014,0.73963,0.591451,0.967827
0.353978,0.739554,0.591392,0.96773
0.353943,0.739478,0.591333,0.967634
0.353907,0.739401,0.591274,0.967537
0.353872,0.739325,0.591214,0.96744
0.353837,0.739249,0.591155,0.967343
0.353801,0.739172,0.591096,0.967247
0.353766,0.739096,0.591037,0.96715
0.35373,0.73902,0.590978,0.967053
0.353695,0.738943,0.590919,0.966957
0.35366,0.738867,0.59086,0.96686
0.353624,0.738791,0.590801,0.966763
0.353589,0.738714,0.590742,0.966667
0.353554,0.738638,0.590683,0.96657
0.353518,0.738562,0.590624,0.966473
0.353483,0.738486,0.590564,0.966377
0.353448,0.738409,0.590505,0.96628
0.353412,0.738333,0.590446,0.966183
0.353377,0.738257,0.590387,0.966087
0.353342,0.738181,0.590328,0.96599
0.353306,0.738105,0.590269,0.965893
0.353271,0.738028,0.59021,0.965797
0.353236,0.737952,0.590151,0.9657
0.3532,0.737876,0.590092,0.965604
0.353165,0.7378,0.590033,0.965507
0.35313,0.737724,0.589974,0.965411
0.353094,0.737648,0.589915,0.965314
0.353059,0.737571,0.589856,0.965218
0.353024,0.737495,0.589797,0.965121
0.352988,0.737419,0.589738,0.965025
0.352953,0.737343,0.589679,0.964928
0.352918,0.737267,0.58962,0.964832
0.352882,0.737191,0.589561,0.964735
0.352847,0.737115,0.589502,0.964639
0.352812,0.737039,0.589443,0.964542
0.352777,0.736962,0.589384,0.964446
0.352741,0.736886,0.589326,0.964349
0.352706,0.73681,0.589267,0.964253
0.352671,0.736734,0.589208,0.964156
0.352636,0.736658,0.589149,0.96406
0.3526,0.736582,0.58909,0.963964
0.352565,0.736506,0.589031,0.963867
0.35253,0.73643,0.588972,0.963771
0.352494,0.736354,0.588913,0.963674
0.352459,0.736278,0.588854,0.963578
0.352424,0.736202,0.588795,0.963482
0.352389,0.736126,0.588736,0.963385
0.352354,0.73605,0.588678,0.963289
0.352318,0.735974,0.588619,0.963193
0.352283,0.735898,0.58856,0.963096
0.352248,0.735822,0.588501,0.963
0.352213,0.735746,0.588442,0.962904
0.352177,0.73567,0.588383,0.962807
0.352142,0.735594,0.588324,0.962711
0.352107,0.735518,0.588266,0.962615
0.352072,0.735442,0.588207,0.962519
0.352037,0.735366,0.588148,0.962422
0.352001,0.73529,0.588089,0.962326
0.351966,0.735215,0.58803,0.96223
0.351931,0.735139,0.587972,0.962134
0.351896,0.735063,0.587913,0.962037
0.351861,0.734987,0.587854,0.961941
0.351825,0.734911,0.587795,0.961845
0.35179,0.734835,0.587736,0.961749
0.351755,0.734759,0.587678,0.961653
0.35172,0.734683,0.587619,0.961556
0.351685,0.734608,0.58756,0.96146
0.351649,0.734532,0.587501,0.961364
0.351614,0.734456,0.587443,0.961268
0.351579,0.73438,0.587384,0.961172
0.351544,0.734304,0.587325,0.961076
0.351509,0.734228,0.587266,0.96098
0.351474,0.734153,0.587208,0.960884
0.351439,0.734077,0.587149,0.960788
0.351403,0.734001,0.58709,0.960691
0.351368,0.733925,0.587032,0.960595
0.351333,0.73385,0.586973,0.960499
0.351298,0.733774,0.586914,0.960403
0.351263,0.733698,0.586855,0.960307
0.351228,0.733622,0.586797,0.960211
0.351193,0.733547,0.586738,0.960115
0.351157,0.733471,0.586679,0.960019
0.351122,0.733395,0.586621,0.959923
0.351087,0.733319,0.586562,0.959827
0.351052,0.733244,0.586503,0.959731
0.351017,0.733168,0.586445,0.959635
0.350982,0.733092,0.586386,0.959539
0.350947,0.733017,0.586327,0.959443
0.350912,0.732941,0.586269,0.959347
0.350877,0.732865,0.58621,0.959251
0.350842,0.73279,0.586152,0.959155
0.350806,0.732714,0.586093,0.95906
0.350771,0.732638,0.586034,0.958964
0.350736,0.732563,0.585976,0.958868
0.350701,0.732487,0.585917,0.958772
0.350666,0.732411,0.585859,0.958676
0.350631,0.732336,0.5858,0.95858
0.350596,0.73226,0.585741,0.958484
0.350561,0.732185,0.585683,0.958388
0.350526,0.732109,0.585624,0.958293
0.350491,0.732033,0.585566,0.958197
0.350456,0.731958,0.585507,0.958101
0.350421,0.731882,0.585449,0.958005
0.350386,0.731807,0.58539,0.957909
0.350351,0.731731,0.585331,0.957814
0.350316,0.731656,0.585273,0.957718
0.350281,0.73158,0.585214,0.957622
0.350246,0.731505,0.585156,0.957526
0.350211,0.731429,0.585097,0.95743
0.350176,0.731354,0.585039,0.957335
0.350141,0.731278,0.58498,0.957239
0.350106,0.731203,0.584922,0.957143
0.350071,0.731127,0.584863,0.957048
0.350036,0.731052,0.584805,0.956952
0.350001,0.730976,0.584746,0.956856
0.349966,0.730901,0.584688,0.95676
0.349931,0.730825,0.584629,0.956665
0.349896,0.73075,0.584571,0.956569
0.349861,0.730674,0.584513,0.956473
0.349826,0.730599,0.584454,0.956378
0.349791,0.730524,0.584396,0.956282
0.349756,0.730448,0.584337,0.956187
0.349721,0.730373,0.584279,0.956091
0.349686,0.730297,0.58422,0.955995
0.349651,0.730222,0.584162,0.9559
0.349616,0.730147,0.584104,0.955804
0.349581,0.730071,0.584045,0.955709
0.349546,0.729996,0.583987,0.955613
0.349511,0.72992,0.583928,0.955517
0.349476,0.729845,0.58387,0.955422
0.349441,0.72977,0.583812,0.955326
0.349406,0.729694,0.583753,0.955231
0.349371,0.729619,0.583695,0.955135
0.349336,0.729544,0.583636,0.95504
0.349301,0.729468,0.583578,0.954944
0.349266,0.729393,0.58352,0.954849
0.349231,0.729318,0.583461,0.954753
0.349196,0.729242,0.583403,0.954658
0.349161,0.729167,0.583345,0.954562
0.349127,0.729092,0.583286,0.954467
0.349092,0.729017,0.583228,0.954371
0.349057,0.728941,0.58317,0.954276
0.349022,0.728866,0.583111,0.954181
0.348987,0.728791,0.583053,0.954085
0.348952,0.728716,0.582995,0.95399
0.348917,0.72864,0.582936,0.953894
0.348882,0.728565,0.582878,0.953799
0.348847,0.72849,0.58282,0.953704
0.348812,0.728415,0.582762,0.953608
0.348778,0.72834,0.582703,0.953513
0.348743,0.728264,0.582645,0.953417
0.348708,0.728189,0.582587,0.953322
0.348673,0.728114,0.582528,0.953227
0.348638,0.728039,0.58247,0.953131
0.348603,0.727964,0.582412,0.953036
0.348568,0.727889,0.582354,0.952941
0.348534,0.727813,0.582296,0.952846
0.348499,0.727738,0.582237,0.95275
0.348464,0.727663,0.582179,0.952655
0.348429,0.727588,0.582121,0.95256
0.348394,0.727513,0.582063,0.952465
0.348359,0.727438,0.582004,0.952369
0.348324,0.727363,0.581946,0.952274
0.34829,0.727288,0.581888,0.952179
0.348255,0.727213,0.58183,0.952084
0.34822,0.727137,0.581772,0.951988
0.348185,0.727062,0.581713,0.951893
0.34815,0.726987,0.581655,0.951798
0.348116,0.726912,0.581597,0.951703
0.348081,0.726837,0.581539,0.951608
0.348046,0.726762,0.581481,0.951512
0.348011,0.726687,0.581423,0.951417
0.347976,0.726612,0.581365,0.951322
0.347942,0.726537,0.581306,0.951227
0.347907,0.726462,0.581248,0.951132
0.347872,0.726387,0.58119,0.951037
0.347837,0.726312,0.581132,0.950942
0.347802,0.726237,0.581074,0.950847
0.347768,0.726162,0.581016,0.950752
0.347733,0.726087,0.580958,0.950656
0.347698,0.726012,0.5809,0.950561
0.347663,0.725937,0.580842,0.950466
0.347628,0.725862,0.580783,0.950371
0.347594,0.725787,0.580725,0.950276
0.347559,0.725713,0.580667,0.950181
0.347524,0.725638,0.580609,0.950086
0.347489,0.725563,0.580551,0.949991
0.347455,0.725488,0.580493,0.949896
0.34742,0.725413,0.580435,0.949801
0.347385,0.725338,0.580377,0.949706
0.34735,0.725263,0.580319,0.949611
0.347316,0.725188,0.580261,0.949516
0.347281,0.725113,0.580203,0.949421
0.347246,0.725039,0.580145,0.949326
0.347212,0.724964,0.580087,0.949231
0.347177,0.724889,0.580029,0.949137
0.347142,0.724814,0.579971,0.949042
0.347107,0.724739,0.579913,0.948947
0.347073,0.724664,0.579855,0.948852
0.347038,0.72459,0.579797,0.948757
0.347003,0.724515,0.579739,0.948662
0.346969,0.72444,0.579681,0.948567
0.346934,0.724365,0.579623,0.948472
0.346899,0.72429,0.579565,0.948377
0.346864,0.724216,0.579507,0.948283
0.34683,0.724141,0.579449,0.948188
0.346795,0.724066,0.579391,0.948093
0.34676,0.723991,0.579333,0.947998
0.346726,0.723917,0.579275,0.947903
0.346691,0.723842,0.579217,0.947809
0.346656,0.723767,0.579159,0.947714
0.346622,0.723692,0.579102,0.947619
0.346587,0.723618,0.579044,0.947524
0.346552,0.723543,0.578986,0.94743
0.346518,0.723468,0.578928,0.947335
0.346483,0.723394,0.57887,0.94724
0.346448,0.723319,0.578812,0.947145
0.346414,0.723244,0.578754,0.947051
0.346379,0.72317,0.578696,0.946956
0.346345,0.723095,0.578638,0.946861
0.34631,0.72302,0.578581,0.946767
0.346275,0.722946,0.578523,0.946672
0.346241,0.722871,0.578465,0.946577
0.346206,0.722796,0.578407,0.946483
0.346171,0.722722,0.578349,0.946388
0.346137,0.722647,0.578291,0.946293
0.346102,0.722573,0.578233,0.946199
0.346068,0.722498,0.578176,0.946104
0.346033,0.722423,0.578118,0.946009
0.345998,0.722349,0.57806,0.945915
0.345964,0.722274,0.578002,0.94582
0.345929,0.7222,0.577944,0.945726
0.345895,0.722125,0.577887,0.945631
0.34586,0.722051,0.577829,0.945536
0.345825,0.721976,0.577771,0.945442
0.345791,0.721901,0.577713,0.945347
