energy,productivity,fun,hunger
0.718052,0.819409,0.755358,0.713038
0.717981,0.819327,0.777941,0.712967
0.71755,0.819245,0.777863,0.712895
0.717119,0.819163,0.777785,0.712824
0.716689,0.819082,0.777707,0.712753
0.716259,0.819,0.777629,0.712682
0.715829,0.818918,0.777552,0.71261
0.7154,0.818836,0.777474,0.712539
0.714971,0.818754,0.777396,0.712468
0.714542,0.818673,0.777318,0.712397
0.714113,0.818591,0.777241,0.712325
0.713685,0.818509,0.777163,0.712254
0.713257,0.818427,0.777085,0.712183
0.712829,0.818346,0.777008,0.712112
0.712401,0.818264,0.77693,0.71204
0.711974,0.818182,0.776852,0.711969
0.711546,0.8181,0.776774,0.711898
0.71112,0.818019,0.776697,0.711827
0.710693,0.817937,0.776619,0.711756
0.710267,0.817855,0.776541,0.711684
0.70984,0.817774,0.776464,0.711613
0.709415,0.817692,0.776386,0.711542
0.708989,0.81761,0.776309,0.711471
0.708918,0.817529,0.776231,0.7114
0.708847,0.817447,0.799438,0.711329
0.708422,0.817365,0.799358,0.711258
0.707997,0.817284,0.799278,0.711186
0.707572,0.817202,0.799198,0.711115
0.707148,0.817121,0.799118,0.711044
0.706723,0.817039,0.799038,0.710973
0.706299,0.816957,0.798958,0.710902
0.705876,0.816876,0.798878,0.710831
0.705452,0.816794,0.798799,0.71076
0.705029,0.816713,0.798719,0.710689
0.704606,0.816631,0.798639,0.710618
0.704183,0.816549,0.798559,0.710547
0.703761,0.816468,0.798479,0.710476
0.70369,0.816386,0.798399,0.710405
0.70362,0.816305,0.822269,0.710333
0.703198,0.816223,0.822187,0.710262
0.702776,0.816142,0.822105,0.710191
0.702354,0.81606,0.822022,0.71012
0.701933,0.815979,0.82194,0.710049
0.701512,0.815897,0.821858,0.709978
0.701091,0.815816,0.821776,0.709907
0.70067,0.815734,0.821694,0.709836
0.70025,0.815653,0.821611,0.709765
0.69983,0.815571,0.821529,0.709694
0.69941,0.81549,0.821447,0.709623
0.69899,0.815408,0.821365,0.709552
0.698571,0.815327,0.821283,0.709482
0.698152,0.815246,0.821201,0.709411
0.697733,0.815164,0.821119,0.70934
0.697314,0.815083,0.821036,0.709269
0.696896,0.815001,0.820954,0.709198
0.696478,0.81492,0.820872,0.709127
0.69606,0.814839,0.82079,0.709056
0.695642,0.814757,0.820708,0.708985
0.695225,0.814676,0.820626,0.708914
0.694808,0.814594,0.820544,0.708843
0.694391,0.814513,0.820462,0.708772
0.693975,0.814432,0.82038,0.708702
0.693558,0.81435,0.820298,0.708631
0.693142,0.814269,0.820216,0.70856
0.692726,0.814188,0.820134,0.708489
0.692311,0.814106,0.820052,0.708418
0.691895,0.814025,0.81997,0.708347
0.69148,0.813944,0.819888,0.708276
0.691065,0.813863,0.819806,0.708206
0.690651,0.813781,0.819724,0.708135
0.690236,0.8137,0.819642,0.708064
0.689822,0.813619,0.81956,0.707993
0.689408,0.813538,0.819478,0.707922
0.688995,0.813456,0.819396,0.707852
0.688581,0.813375,0.819314,0.707781
0.688168,0.813294,0.819232,0.70771
0.687755,0.813213,0.81915,0.707639
0.687343,0.813131,0.819068,0.707568
0.687274,0.81305,0.818986,0.707498
0.687205,0.812969,0.843472,0.707427
0.686793,0.812888,0.843387,0.707356
0.686381,0.812807,0.843303,0.707285
0.685969,0.812725,0.843219,0.707215
0.685558,0.812644,0.843134,0.707144
0.685146,0.812563,0.84305,0.707073
0.684735,0.812482,0.842966,0.707003
0.684325,0.812401,0.842881,0.706932
0.683914,0.81232,0.842797,0.706861
0.683504,0.812239,0.842713,0.70679
0.683094,0.812157,0.842628,0.70672
0.682684,0.812076,0.842544,0.706649
0.682274,0.811995,0.84246,0.706578
0.681865,0.811914,0.842376,0.706508
0.681456,0.811833,0.842291,0.706437
0.681047,0.811752,0.842207,0.706367
0.680638,0.811671,0.842123,0.706296
0.68023,0.81159,0.842039,0.706225
0.679822,0.811509,0.841955,0.706155
0.679414,0.811428,0.84187,0.706084
0.679006,0.811347,0.841786,0.706013
0.678599,0.811266,0.841702,0.705943
0.678192,0.811185,0.841618,0.705872
0.677785,0.811104,0.841534,0.705802
0.677717,0.811023,0.84145,0.705731
0.67765,0.810942,0.866606,0.70566
0.677243,0.810861,0.86652,0.70559
0.676837,0.81078,0.866433,0.705519
0.676431,0.810699,0.866346,0.705449
0.676025,0.810618,0.86626,0.705378
0.675619,0.810537,0.866173,0.705308
0.675214,0.810456,0.866086,0.705237
0.674809,0.810375,0.866,0.705167
0.674404,0.810294,0.865913,0.705096
0.673999,0.810213,0.865827,0.705026
0.673595,0.810132,0.86574,0.704955
0.673191,0.810051,0.865654,0.704885
0.672787,0.80997,0.865567,0.704814
0.672383,0.809889,0.86548,0.704744
0.67198,0.809808,0.865394,0.704673
0.671577,0.809728,0.865307,0.704603
0.671174,0.809647,0.865221,0.704532
0.670771,0.809566,0.865134,0.704462
0.670369,0.809485,0.865048,0.704391
0.669967,0.809404,0.864961,0.704321
0.669565,0.809323,0.864875,0.70425
0.669163,0.809242,0.864788,0.70418
0.668761,0.809162,0.864702,0.70411
0.66836,0.809081,0.864615,0.704039
0.667959,0.809,0.864529,0.703969
0.667558,0.808919,0.864442,0.703898
0.667158,0.808838,0.864356,0.703828
0.666758,0.808758,0.86427,0.703758
0.666691,0.808677,0.864183,0.703687
0.666624,0.808596,0.89002,0.703617
0.666224,0.808515,0.889931,0.703547
0.665825,0.808435,0.889842,0.703476
0.665425,0.808354,0.889753,0.703406
0.665026,0.808273,0.889664,0.703336
0.664627,0.808192,0.889575,0.703265
0.664228,0.808112,0.889486,0.703195
0.66383,0.808031,0.889397,0.703125
0.663432,0.80795,0.889308,0.703054
0.663034,0.80787,0.889219,0.702984
0.662636,0.807789,0.88913,0.702914
0.662238,0.807708,0.889041,0.702843
0.661841,0.807628,0.888952,0.702773
0.661444,0.807547,0.888863,0.702703
0.661047,0.807466,0.888774,0.702632
0.66065,0.807386,0.888685,0.702562
0.660254,0.807305,0.888597,0.702492
0.659858,0.807224,0.888508,0.702422
0.659462,0.807144,0.888419,0.702351
0.659066,0.807063,0.88833,0.702281
0.658671,0.806983,0.888241,0.702211
0.658276,0.806902,0.888152,0.702141
0.657881,0.806821,0.888064,0.702071
0.657486,0.806741,0.887975,0.702
0.657092,0.80666,0.887886,0.70193
0.656697,0.80658,0.887797,0.70186
0.656303,0.806499,0.887708,0.70179
0.65591,0.806419,0.88762,0.70172
0.655516,0.806338,0.887531,0.701649
0.655123,0.806257,0.887442,0.701579
0.65473,0.806177,0.887353,0.701509
0.654337,0.806096,0.887265,0.701439
0.653945,0.806016,0.887176,0.701369
0.653552,0.805935,0.887087,0.701299
0.653487,0.805855,0.886999,0.701229
0.653421,0.805774,0.913517,0.701158
0.653029,0.805694,0.913426,0.701088
0.652638,0.805614,0.913334,0.701018
0.652246,0.805533,0.913243,0.700948
0.651855,0.805453,0.913152,0.700878
0.651464,0.805372,0.91306,0.700808
0.651073,0.805292,0.912969,0.700738
0.650682,0.805211,0.912878,0.700668
0.650292,0.805131,0.912787,0.700598
0.649902,0.805051,0.912695,0.700528
0.649512,0.80497,0.912604,0.700458
0.649122,0.80489,0.912513,0.700388
0.648733,0.804809,0.912421,0.700318
0.648344,0.804729,0.91233,0.700247
0.647955,0.804649,0.912239,0.700177
0.647566,0.804568,0.912148,0.700107
0.647177,0.804488,0.912057,0.700037
0.647113,0.804408,0.911965,0.699967
0.647048,0.804327,0.93923,0.699897
0.64666,0.804247,0.939136,0.699827
0.646272,0.804167,0.939043,0.699757
0.645884,0.804086,0.938949,0.699687
0.645497,0.804006,0.938855,0.699618
0.645109,0.803926,0.938761,0.699548
0.644722,0.803845,0.938667,0.699478
0.644335,0.803765,0.938573,0.699408
0.643949,0.803685,0.938479,0.699338
0.643562,0.803605,0.938385,0.699268
0.643176,0.803524,0.938292,0.699198
0.642791,0.803444,0.938198,0.699128
0.642405,0.803364,0.938104,0.699058
0.642019,0.803284,0.93801,0.698988
0.641634,0.803203,0.937916,0.698918
0.641249,0.803123,0.937823,0.698848
0.640865,0.803043,0.937729,0.698778
0.64048,0.802963,0.937635,0.698709
0.640096,0.802882,0.937541,0.698639
0.639712,0.802802,0.937447,0.698569
0.639328,0.802722,0.937354,0.698499
0.638944,0.802642,0.93726,0.698429
0.638561,0.802562,0.937166,0.698359
0.638178,0.802482,0.937073,0.698289
0.637795,0.802401,0.936979,0.69822
0.637413,0.802321,0.936885,0.69815
0.63703,0.802241,0.936791,0.69808
0.636648,0.802161,0.936698,0.69801
0.636266,0.802081,0.936604,0.69794
0.635884,0.802001,0.93651,0.697871
0.635503,0.801921,0.936417,0.697801
0.635121,0.801841,0.936323,0.697731
0.63474,0.801761,0.93623,0.697661
0.63436,0.801681,0.936136,0.697591
0.633979,0.8016,0.936042,0.697522
0.633599,0.80152,0.935949,0.697452
0.633219,0.80144,0.935855,0.697382
0.632839,0.80136,0.935761,0.697312
0.632459,0.80128,0.935668,0.697243
0.63208,0.8012,0.935574,0.697173
0.6317,0.80112,0.935481,0.697103
0.631321,0.80104,0.935387,0.697034
0.630943,0.80096,0.935294,0.696964
0.630564,0.80088,0.9352,0.696894
0.630186,0.8008,0.935107,0.696824
0.629808,0.80072,0.935013,0.696755
0.62943,0.80064,0.93492,0.696685
0.629052,0.80056,0.934826,0.696615
0.628675,0.80048,0.934733,0.696546
0.628298,0.8004,0.934639,0.696476
0.627921,0.800321,0.934546,0.696407
0.627544,0.800241,0.934452,0.696337
0.627167,0.800161,0.934359,0.696267
0.626791,0.800081,0.934265,0.696198
0.626415,0.800001,0.934172,0.696128
0.626039,0.799921,0.934079,0.696058
0.625664,0.799841,0.933985,0.695989
0.625288,0.799761,0.933892,0.695919
0.624913,0.799681,0.933798,0.69585
0.624538,0.799601,0.933705,0.69578
0.624476,0.799522,0.933612,0.69571
0.624413,0.799442,0.961524,0.695641
0.624039,0.799362,0.961428,0.695571
0.623664,0.799282,0.961331,0.695502
0.62329,0.799202,0.961235,0.695432
0.622916,0.799122,0.961139,0.695363
0.622543,0.799043,0.961043,0.695293
0.622169,0.798963,0.960947,0.695224
0.621796,0.798883,0.960851,0.695154
0.621423,0.798803,0.960755,0.695085
0.62105,0.798723,0.960659,0.695015
0.620677,0.798644,0.960563,0.694946
0.620305,0.798564,0.960467,0.694876
0.619933,0.798484,0.960371,0.694807
0.619561,0.798404,0.960275,0.694737
0.619189,0.798325,0.960179,0.694668
0.618818,0.798245,0.960083,0.694598
0.618446,0.798165,0.959987,0.694529
0.618075,0.798086,0.959891,0.694459
0.617705,0.798006,0.959795,0.69439
0.617334,0.797926,0.959699,0.69432
0.616964,0.797846,0.959603,0.694251
0.616593,0.797767,0.959507,0.694181
0.616224,0.797687,0.959411,0.694112
0.615854,0.797607,0.959315,0.694043
0.615484,0.797528,0.959219,0.693973
0.615115,0.797448,0.959123,0.693904
0.614746,0.797368,0.959027,0.693834
0.614377,0.797289,0.958931,0.693765
0.614009,0.797209,0.958835,0.693696
0.61364,0.79713,0.958739,0.693626
0.613272,0.79705,0.958643,0.693557
0.612904,0.79697,0.958548,0.693488
0.612536,0.796891,0.958452,0.693418
0.612169,0.796811,0.958356,0.693349
0.611802,0.796732,0.95826,0.69328
0.611435,0.796652,0.958164,0.69321
0.611068,0.796572,0.958068,0.693141
0.611007,0.796493,0.957973,0.693072
0.610946,0.796413,0.986613,0.693002
0.610579,0.796334,0.986514,0.692933
0.610213,0.796254,0.986416,0.692864
0.609847,0.796175,0.986317,0.692794
0.609481,0.796095,0.986218,0.692725
0.609115,0.796016,0.98612,0.692656
0.60875,0.795936,0.986021,0.692587
0.608384,0.795857,0.985923,0.692517
0.608019,0.795777,0.985824,0.692448
0.607655,0.795698,0.985725,0.692379
0.60729,0.795618,0.985627,0.69231
0.606926,0.795539,0.985528,0.69224
0.606562,0.795459,0.98543,0.692171
0.606198,0.79538,0.985331,0.692102
0.605834,0.795301,0.985233,0.692033
0.605471,0.795221,0.985134,0.691964
0.605107,0.795142,0.985036,0.691894
0.604744,0.795062,0.984937,0.691825
0.604381,0.794983,0.984839,0.691756
0.604019,0.794903,0.98474,0.691687
0.603657,0.794824,0.984642,0.691618
0.603294,0.794745,0.984543,0.691548
0.602932,0.794665,0.984445,0.691479
0.602571,0.794586,0.984346,0.69141
0.602209,0.794507,0.984248,0.691341
0.601848,0.794427,0.984149,0.691272
0.601487,0.794348,0.984051,0.691203
0.601126,0.794269,0.983953,0.691134
0.600765,0.794189,0.983854,0.691065
0.600405,0.79411,0.983756,0.690995
0.600045,0.794031,0.983658,0.690926
0.599685,0.793951,0.983559,0.690857
0.599325,0.793872,0.983461,0.690788
0.598965,0.793793,0.983362,0.690719
0.598606,0.793713,0.983264,0.69065
0.598247,0.793634,0.983166,0.690581
0.598187,0.793555,0.983067,0.690512
0.598127,0.793476,1,0.690443
0.597768,0.793396,0.9999,0.690374
0.59741,0.793317,0.9998,0.690305
0.597051,0.793238,0.9997,0.690236
0.596693,0.793159,0.9996,0.690167
0.596335,0.79308,0.9995,0.690098
0.595977,0.793,0.9994,0.690029
0.59562,0.792921,0.9993,0.68996
0.595262,0.792842,0.9992,0.689891
0.594905,0.792763,0.9991,0.689822
0.594548,0.792684,0.999,0.689753
0.594192,0.792604,0.998901,0.689684
0.593835,0.792525,0.998801,0.689615
0.593479,0.792446,0.998701,0.689546
0.593123,0.792367,0.998601,0.689477
0.592767,0.792288,0.998501,0.689408
0.592411,0.792209,0.998401,0.689339
0.592056,0.79213,0.998301,0.68927
0.591701,0.79205,0.998202,0.689201
0.591346,0.791971,0.998102,0.689132
0.590991,0.791892,0.998002,0.689063
0.590636,0.791813,0.997902,0.688994
0.590282,0.791734,0.997802,0.688925
0.589928,0.791655,0.997703,0.688857
0.589574,0.791576,0.997603,0.688788
0.58922,0.791497,0.997503,0.688719
0.588867,0.791418,0.997403,0.68865
0.588513,0.791339,0.997304,0.688581
0.58816,0.79126,0.997204,0.688512
0.587808,0.791181,0.997104,0.688443
0.587455,0.791102,0.997004,0.688374
0.587102,0.791023,0.996905,0.688306
0.58675,0.790944,0.996805,0.688237
0.586398,0.790865,0.996705,0.688168
0.586046,0.790786,0.996606,0.688099
0.585695,0.790707,0.996506,0.68803
0.585343,0.790628,0.996406,0.687962
0.584992,0.790549,0.996307,0.687893
0.584641,0.79047,0.996207,0.687824
0.584291,0.790391,0.996107,0.687755
0.58394,0.790312,0.996008,0.687686
0.58359,0.790233,0.995908,0.687618
0.58324,0.790154,0.995809,0.687549
0.58289,0.790075,0.995709,0.68748
0.58254,0.789996,0.995609,0.687411
0.58219,0.789917,0.99551,0.687343
0.581841,0.789839,0.99541,0.687274
0.581492,0.78976,0.995311,0.687205
0.581143,0.789681,0.995211,0.687136
0.580795,0.789602,0.995112,0.687068
0.580446,0.789523,0.995012,0.686999
0.580098,0.789444,0.994913,0.68693
0.57975,0.789365,0.994813,0.686862
0.579402,0.789287,0.994714,0.686793
0.579054,0.789208,0.994614,0.686724
0.578996,0.789129,0.994515,0.686656
0.578939,0.78905,1,0.686587
0.578591,0.788971,0.9999,0.686518
0.578244,0.788893,0.9998,0.68645
0.577897,0.788814,0.9997,0.686381
0.57755,0.788735,0.9996,0.686312
0.577204,0.788656,0.9995,0.686244
0.576858,0.788577,0.9994,0.686175
0.576512,0.788499,0.9993,0.686106
0.576166,0.78842,0.9992,0.686038
0.57582,0.788341,0.9991,0.685969
0.575475,0.788262,0.999,0.685901
0.575129,0.788184,0.998901,0.685832
0.574784,0.788105,0.998801,0.685763
0.574439,0.788026,0.998701,0.685695
0.574095,0.787948,0.998601,0.685626
0.57375,0.787869,0.998501,0.685558
0.573406,0.78779,0.998401,0.685489
0.573062,0.787712,0.998301,0.685421
0.572718,0.787633,0.998202,0.685352
0.572375,0.787554,0.998102,0.685284
0.572031,0.787476,0.998002,0.685215
0.571688,0.787397,0.997902,0.685147
0.571345,0.787318,0.997802,0.685078
0.571002,0.78724,0.997703,0.68501
0.57066,0.787161,0.997603,0.684941
0.570317,0.787082,0.997503,0.684873
0.569975,0.787004,0.997403,0.684804
0.569633,0.786925,0.997304,0.684736
0.569292,0.786847,0.997204,0.684667
0.56895,0.786768,0.997104,0.684599
0.568609,0.786689,0.997004,0.68453
0.568268,0.786611,0.996905,0.684462
0.567927,0.786532,0.996805,0.684393
0.567586,0.786454,0.996705,0.684325
0.567245,0.786375,0.996606,0.684256
0.566905,0.786297,0.996506,0.684188
0.566565,0.786218,0.996406,0.68412
0.566225,0.78614,0.996307,0.684051
0.565885,0.786061,0.996207,0.683983
0.565546,0.785983,0.996107,0.683914
0.565206,0.785904,0.996008,0.683846
0.564867,0.785826,0.995908,0.683778
0.564529,0.785747,0.995809,0.683709
0.56419,0.785669,0.995709,0.683641
0.563851,0.78559,0.995609,0.683572
0.563513,0.785512,0.99551,0.683504
0.563175,0.785433,0.99541,0.683436
0.562837,0.785355,0.995311,0.683367
0.562499,0.785276,0.995211,0.683299
0.562162,0.785198,0.995112,0.683231
0.561825,0.78512,0.995012,0.683162
0.561768,0.785041,0.994913,0.683094
0.561712,0.784963,1,0.683026
0.561375,0.784884,0.9999,0.682957
0.561039,0.784806,0.9998,0.682889
0.560702,0.784728,0.9997,0.682821
0.560366,0.784649,0.9996,0.682753
0.560029,0.784571,0.9995,0.682684
0.559693,0.784492,0.9994,0.682616
0.559358,0.784414,0.9993,0.682548
0.559022,0.784336,0.9992,0.68248
0.558687,0.784257,0.9991,0.682411
0.558351,0.784179,0.999,0.682343
0.558016,0.784101,0.998901,0.682275
0.557682,0.784023,0.998801,0.682207
0.557347,0.783944,0.998701,0.682138
0.557013,0.783866,0.998601,0.68207
0.556679,0.783788,0.998501,0.682002
0.556345,0.783709,0.998401,0.681934
0.556011,0.783631,0.998301,0.681866
0.555677,0.783553,0.998202,0.681797
0.555344,0.783475,0.998102,0.681729
0.555011,0.783396,0.998002,0.681661
0.554678,0.783318,0.997902,0.681593
0.554345,0.78324,0.997802,0.681525
0.554012,0.783162,0.997703,0.681457
0.553957,0.783083,0.997603,0.681388
0.553901,0.783005,1,0.68132
0.553569,0.782927,0.9999,0.681252
0.553237,0.782849,0.9998,0.681184
0.552905,0.782771,0.9997,0.681116
0.552573,0.782692,0.9996,0.681048
0.552242,0.782614,0.9995,0.68098
0.551911,0.782536,0.9994,0.680912
0.551579,0.782458,0.9993,0.680843
0.551249,0.78238,0.9992,0.680775
0.550918,0.782302,0.9991,0.680707
0.550587,0.782224,0.999,0.680639
0.550257,0.782145,0.998901,0.680571
0.549927,0.782067,0.998801,0.680503
0.549597,0.781989,0.998701,0.680435
0.549267,0.781911,0.998601,0.680367
0.548938,0.781833,0.998501,0.680299
0.548608,0.781755,0.998401,0.680231
0.548279,0.781677,0.998301,0.680163
0.54795,0.781599,0.998202,0.680095
0.547622,0.781521,0.998102,0.680027
0.547293,0.781443,0.998002,0.679959
0.546965,0.781365,0.997902,0.679891
0.546636,0.781287,0.997802,0.679823
0.546309,0.781209,0.997703,0.679755
0.545981,0.781131,0.997603,0.679687
0.545653,0.781053,0.997503,0.679619
0.545326,0.780975,0.997403,0.679551
0.544999,0.780897,0.997304,0.679483
0.544672,0.780819,0.997204,0.679415
0.544345,0.780741,0.997104,0.679347
0.544018,0.780663,0.997004,0.679279
0.543692,0.780585,0.996905,0.679211
0.543366,0.780507,0.996805,0.679143
0.54304,0.780429,0.996705,0.679075
0.542714,0.780351,0.996606,0.679008
0.542388,0.780273,0.996506,0.67894
0.542063,0.780195,0.996406,0.678872
0.541738,0.780117,0.996307,0.678804
0.541413,0.780039,0.996207,0.678736
0.541088,0.779961,0.996107,0.678668
0.540763,0.779883,0.996008,0.6786
0.540439,0.779805,0.995908,0.678532
0.540115,0.779728,0.995809,0.678465
0.539791,0.77965,0.995709,0.678397
0.539467,0.779572,0.995609,0.678329
0.539143,0.779494,0.99551,0.678261
0.53882,0.779416,0.99541,0.678193
0.538496,0.779338,0.995311,0.678125
0.538173,0.77926,0.995211,0.678058
0.538119,0.779183,0.995112,0.67799
0.538066,0.779105,1,0.677922
0.537743,0.779027,0.9999,0.677854
0.53742,0.778949,0.9998,0.677786
0.537098,0.778871,0.9997,0.677719
0.536776,0.778794,0.9996,0.677651
0.536454,0.778716,0.9995,0.677583
0.536132,0.778638,0.9994,0.677515
0.53581,0.77856,0.9993,0.677448
0.535489,0.778482,0.9992,0.67738
0.535167,0.778405,0.9991,0.677312
0.534846,0.778327,0.999,0.677244
0.534525,0.778249,0.998901,0.677177
0.534205,0.778172,0.998801,0.677109
0.533884,0.778094,0.998701,0.677041
0.533564,0.778016,0.998601,0.676974
0.533244,0.777938,0.998501,0.676906
0.532924,0.777861,0.998401,0.676838
0.532604,0.777783,0.998301,0.67677
0.532285,0.777705,0.998202,0.676703
0.531965,0.777628,0.998102,0.676635
0.531646,0.77755,0.998002,0.676567
0.531327,0.777472,0.997902,0.6765
0.531008,0.777395,0.997802,0.676432
0.53069,0.777317,0.997703,0.676364
0.530371,0.777239,0.997603,0.676297
0.530053,0.777162,0.997503,0.676229
0.529735,0.777084,0.997403,0.676162
0.529417,0.777007,0.997304,0.676094
0.5291,0.776929,0.997204,0.676026
0.528782,0.776851,0.997104,0.675959
0.528465,0.776774,0.997004,0.675891
0.528148,0.776696,0.996905,0.675824
0.527831,0.776619,0.996805,0.675756
0.527514,0.776541,0.996705,0.675688
0.527198,0.776464,0.996606,0.675621
0.526882,0.776386,0.996506,0.675553
0.526566,0.776308,0.996406,0.675486
0.52625,0.776231,0.996307,0.675418
0.525934,0.776153,0.996207,0.675351
0.525618,0.776076,0.996107,0.675283
0.525303,0.775998,0.996008,0.675216
0.524988,0.775921,0.995908,0.675148
0.524673,0.775843,0.995809,0.675081
0.524358,0.775766,0.995709,0.675013
0.524044,0.775688,0.995609,0.674946
0.523729,0.775611,0.99551,0.674878
0.523415,0.775534,0.99541,0.674811
0.523101,0.775456,0.995311,0.674743
0.522787,0.775379,0.995211,0.674676
0.522473,0.775301,0.995112,0.674608
0.52216,0.775224,0.995012,0.674541
0.521847,0.775146,0.994913,0.674473
0.521534,0.775069,0.994813,0.674406
0.521221,0.774992,0.994714,0.674338
0.520908,0.774914,0.994614,0.674271
0.520596,0.774837,0.994515,0.674203
0.520283,0.774759,0.994415,0.674136
0.519971,0.774682,0.994316,0.674069
0.519659,0.774605,0.994216,0.674001
0.519347,0.774527,0.994117,0.673934
