energy,productivity,fun,hunger
0.9999,0.766155,0.809136,0.649006
0.9998,0.76609,0.833327,0.648941
0.9992,0.766024,0.833244,0.648876
0.998601,0.765958,0.83316,0.648811
0.998002,0.765892,0.833077,0.648746
0.997403,0.765827,0.832994,0.648681
0.996804,0.765761,0.83291,0.648617
0.996206,0.765695,0.832827,0.648552
0.995609,0.765629,0.832744,0.648487
0.995011,0.765564,0.832661,0.648422
0.994414,0.765498,0.832577,0.648357
0.993818,0.765432,0.832494,0.648292
0.993222,0.765367,0.832411,0.648228
0.992626,0.765301,0.832328,0.648163
0.99203,0.765235,0.832244,0.648098
0.991435,0.76517,0.832161,0.648033
0.99084,0.765104,0.832078,0.647968
0.990246,0.765038,0.831995,0.647903
0.989652,0.764973,0.831911,0.647839
0.989058,0.764907,0.831828,0.647774
0.988465,0.764841,0.831745,0.647709
0.987872,0.764776,0.831662,0.647644
0.987279,0.76471,0.831579,0.64758
0.986687,0.764644,0.831496,0.647515
0.986095,0.764579,0.831412,0.64745
0.985503,0.764513,0.831329,0.647385
0.984912,0.764448,0.831246,0.647321
0.984321,0.764382,0.831163,0.647256
0.98373,0.764316,0.83108,0.647191
0.98314,0.764251,0.830997,0.647126
0.98255,0.764185,0.830914,0.647062
0.981961,0.76412,0.830831,0.646997
0.981372,0.764054,0.830748,0.646932
0.980783,0.763988,0.830665,0.646868
0.980194,0.763923,0.830581,0.646803
0.979606,0.763857,0.830498,0.646738
0.979019,0.763792,0.830415,0.646674
0.978431,0.763726,0.830332,0.646609
0.977844,0.763661,0.830249,0.646544
0.977258,0.763595,0.830166,0.64648
0.976671,0.76353,0.830083,0.646415
0.976085,0.763464,0.83,0.64635
0.9755,0.763399,0.829917,0.646286
0.974915,0.763333,0.829834,0.646221
0.97433,0.763268,0.829751,0.646156
0.973745,0.763202,0.829668,0.646092
0.973161,0.763137,0.829585,0.646027
0.972577,0.763071,0.829502,0.645963
0.97248,0.763006,0.829419,0.645898
0.972383,0.76294,0.854217,0.645833
0.971799,0.762875,0.854131,0.645769
0.971216,0.762809,0.854046,0.645704
0.970633,0.762744,0.85396,0.64564
0.970051,0.762678,0.853875,0.645575
0.969469,0.762613,0.85379,0.645511
0.968887,0.762547,0.853704,0.645446
0.968306,0.762482,0.853619,0.645381
0.967725,0.762416,0.853533,0.645317
0.967145,0.762351,0.853448,0.645252
0.966564,0.762286,0.853363,0.645188
0.965985,0.76222,0.853277,0.645123
0.965405,0.762155,0.853192,0.645059
0.964826,0.762089,0.853107,0.644994
0.964247,0.762024,0.853021,0.64493
0.963668,0.761959,0.852936,0.644865
0.96309,0.761893,0.852851,0.644801
0.962513,0.761828,0.852766,0.644736
0.961935,0.761762,0.85268,0.644672
0.961839,0.761697,0.852595,0.644607
0.961743,0.761632,0.878085,0.644543
0.961166,0.761566,0.877997,0.644479
0.960589,0.761501,0.877909,0.644414
0.960013,0.761436,0.877822,0.64435
0.959437,0.76137,0.877734,0.644285
0.958861,0.761305,0.877646,0.644221
0.958286,0.76124,0.877558,0.644156
0.957711,0.761174,0.877471,0.644092
0.957136,0.761109,0.877383,0.644028
0.956562,0.761044,0.877295,0.643963
0.955988,0.760978,0.877207,0.643899
0.955415,0.760913,0.87712,0.643834
0.954842,0.760848,0.877032,0.64377
0.954269,0.760782,0.876944,0.643706
0.953696,0.760717,0.876856,0.643641
0.953124,0.760652,0.876769,0.643577
0.952552,0.760586,0.876681,0.643512
0.951981,0.760521,0.876593,0.643448
0.95141,0.760456,0.876506,0.643384
0.950839,0.760391,0.876418,0.643319
0.950268,0.760325,0.876331,0.643255
0.949698,0.76026,0.876243,0.643191
0.949128,0.760195,0.876155,0.643126
0.948559,0.76013,0.876068,0.643062
0.94799,0.760064,0.87598,0.642998
0.947421,0.759999,0.875892,0.642934
0.946853,0.759934,0.875805,0.642869
0.946285,0.759869,0.875717,0.642805
0.945717,0.759804,0.87563,0.642741
0.94515,0.759738,0.875542,0.642676
0.944582,0.759673,0.875455,0.642612
0.944016,0.759608,0.875367,0.642548
0.943449,0.759543,0.875279,0.642484
0.942883,0.759478,0.875192,0.642419
0.942318,0.759412,0.875104,0.642355
0.941752,0.759347,0.875017,0.642291
0.941187,0.759282,0.874929,0.642227
0.940623,0.759217,0.874842,0.642162
0.940058,0.759152,0.874754,0.642098
0.939494,0.759087,0.874667,0.642034
0.938931,0.759021,0.87458,0.64197
0.938367,0.758956,0.874492,0.641906
0.937804,0.758891,0.874405,0.641841
0.937242,0.758826,0.874317,0.641777
0.93668,0.758761,0.87423,0.641713
0.936118,0.758696,0.874142,0.641649
0.935556,0.758631,0.874055,0.641585
0.934995,0.758566,0.873967,0.641521
0.934901,0.7585,0.87388,0.641456
0.934808,0.758435,0.900006,0.641392
0.934247,0.75837,0.899916,0.641328
0.933686,0.758305,0.899826,0.641264
0.933126,0.75824,0.899737,0.6412
0.932566,0.758175,0.899647,0.641136
0.932007,0.75811,0.899557,0.641072
0.931448,0.758045,0.899467,0.641008
0.930889,0.75798,0.899377,0.640943
0.93033,0.757915,0.899287,0.640879
0.929772,0.75785,0.899197,0.640815
0.929214,0.757785,0.899107,0.640751
0.928657,0.75772,0.899017,0.640687
0.9281,0.757655,0.898927,0.640623
0.927543,0.75759,0.898837,0.640559
0.926986,0.757525,0.898747,0.640495
0.92643,0.75746,0.898657,0.640431
0.925875,0.757395,0.898568,0.640367
0.925319,0.75733,0.898478,0.640303
0.924764,0.757265,0.898388,0.640239
0.924209,0.7572,0.898298,0.640175
0.923655,0.757135,0.898208,0.640111
0.9231,0.75707,0.898118,0.640047
0.922547,0.757005,0.898029,0.639983
0.921993,0.75694,0.897939,0.639919
0.92144,0.756875,0.897849,0.639855
0.920887,0.75681,0.897759,0.639791
0.920335,0.756745,0.897669,0.639727
0.919783,0.75668,0.89758,0.639663
0.919231,0.756615,0.89749,0.639599
0.918679,0.75655,0.8974,0.639535
0.918128,0.756485,0.89731,0.639471
0.917577,0.75642,0.897221,0.639407
0.917027,0.756355,0.897131,0.639343
0.916477,0.75629,0.897041,0.639279
0.915927,0.756225,0.896952,0.639215
0.915377,0.756161,0.896862,0.639151
0.914828,0.756096,0.896772,0.639087
0.914279,0.756031,0.896682,0.639023
0.913731,0.755966,0.896593,0.638959
0.913182,0.755901,0.896503,0.638896
0.912635,0.755836,0.896413,0.638832
0.912087,0.755771,0.896324,0.638768
0.911996,0.755706,0.896234,0.638704
0.911905,0.755642,0.923029,0.63864
0.911358,0.755577,0.922937,0.638576
0.910811,0.755512,0.922844,0.638512
0.910264,0.755447,0.922752,0.638448
0.909718,0.755382,0.92266,0.638385
0.909172,0.755317,0.922567,0.638321
0.908627,0.755253,0.922475,0.638257
0.908082,0.755188,0.922383,0.638193
0.907537,0.755123,0.922291,0.638129
0.906993,0.755058,0.922199,0.638066
0.906448,0.754993,0.922106,0.638002
0.905905,0.754929,0.922014,0.637938
0.905361,0.754864,0.921922,0.637874
0.904818,0.754799,0.92183,0.63781
0.904275,0.754734,0.921738,0.637747
0.903733,0.754669,0.921645,0.637683
0.90319,0.754605,0.921553,0.637619
0.902649,0.75454,0.921461,0.637555
0.902107,0.754475,0.921369,0.637491
0.901566,0.75441,0.921277,0.637428
0.901025,0.754346,0.921185,0.637364
0.900484,0.754281,0.921092,0.6373
0.900394,0.754216,0.921,0.637237
0.900304,0.754151,0.948536,0.637173
0.899764,0.754087,0.948441,0.637109
0.899224,0.754022,0.948346,0.637045
0.898685,0.753957,0.948251,0.636982
0.898146,0.753893,0.948156,0.636918
0.897607,0.753828,0.948061,0.636854
0.897068,0.753763,0.947967,0.636791
0.89653,0.753699,0.947872,0.636727
0.895992,0.753634,0.947777,0.636663
0.895455,0.753569,0.947682,0.6366
0.894917,0.753504,0.947587,0.636536
0.89438,0.75344,0.947493,0.636472
0.893844,0.753375,0.947398,0.636409
0.893755,0.75331,0.947303,0.636345
0.893665,0.753246,0.975625,0.636281
0.893129,0.753181,0.975527,0.636218
0.892593,0.753117,0.97543,0.636154
0.892058,0.753052,0.975332,0.63609
0.891522,0.752987,0.975235,0.636027
0.890988,0.752923,0.975137,0.635963
0.890453,0.752858,0.975039,0.6359
0.889919,0.752793,0.974942,0.635836
0.889385,0.752729,0.974844,0.635773
0.888851,0.752664,0.974747,0.635709
0.888318,0.7526,0.97465,0.635645
0.887785,0.752535,0.974552,0.635582
0.887252,0.75247,0.974455,0.635518
0.88672,0.752406,0.974357,0.635455
0.886188,0.752341,0.97426,0.635391
0.885657,0.752277,0.974162,0.635328
0.885125,0.752212,0.974065,0.635264
0.884594,0.752148,0.973967,0.635201
0.884063,0.752083,0.97387,0.635137
0.883533,0.752019,0.973773,0.635074
0.883003,0.751954,0.973675,0.63501
0.882473,0.751889,0.973578,0.634946
0.881944,0.751825,0.973481,0.634883
0.881415,0.75176,0.973383,0.63482
0.880886,0.751696,0.973286,0.634756
0.880357,0.751631,0.973189,0.634693
0.879829,0.751567,0.973091,0.634629
0.879301,0.751502,0.972994,0.634566
0.878774,0.751438,0.972897,0.634502
0.878247,0.751373,0.972799,0.634439
0.87772,0.751309,0.972702,0.634375
0.877193,0.751244,0.972605,0.634312
0.876667,0.75118,0.972508,0.634248
0.876141,0.751116,0.97241,0.634185
0.875615,0.751051,0.972313,0.634122
0.875528,0.750987,0.972216,0.634058
0.87544,0.750922,1,0.633995
0.874915,0.750858,0.9999,0.633931
0.87439,0.750793,0.9998,0.633868
0.873865,0.750729,0.9997,0.633805
0.873341,0.750664,0.9996,0.633741
0.872817,0.7506,0.9995,0.633678
0.872293,0.750536,0.9994,0.633614
0.87177,0.750471,0.9993,0.633551
0.871247,0.750407,0.9992,0.633488
0.870724,0.750342,0.9991,0.633424
0.870202,0.750278,0.999,0.633361
0.86968,0.750214,0.998901,0.633298
0.869158,0.750149,0.998801,0.633234
0.868637,0.750085,0.998701,0.633171
0.868116,0.75002,0.998601,0.633108
0.867595,0.749956,0.998501,0.633044
0.867074,0.749892,0.998401,0.632981
0.866554,0.749827,0.998301,0.632918
0.866034,0.749763,0.998202,0.632855
0.865515,0.749699,0.998102,0.632791
0.864995,0.749634,0.998002,0.632728
0.864476,0.74957,0.997902,0.632665
0.863958,0.749506,0.997802,0.632601
0.863439,0.749441,0.997703,0.632538
0.862921,0.749377,0.997603,0.632475
0.862404,0.749313,0.997503,0.632412
0.861886,0.749248,0.997403,0.632348
0.861369,0.749184,0.997304,0.632285
0.860852,0.74912,0.997204,0.632222
0.860336,0.749056,0.997104,0.632159
0.85982,0.748991,0.997004,0.632096
0.859304,0.748927,0.996905,0.632032
0.858788,0.748863,0.996805,0.631969
0.858273,0.748798,0.996705,0.631906
0.857758,0.748734,0.996606,0.631843
0.857244,0.74867,0.996506,0.63178
0.856729,0.748606,0.996406,0.631716
0.856215,0.748541,0.996307,0.631653
0.855702,0.748477,0.996207,0.63159
0.855188,0.748413,0.996107,0.631527
0.855103,0.748349,0.996008,0.631464
0.855017,0.748284,1,0.631401
0.854504,0.74822,0.9999,0.631337
0.853992,0.748156,0.9998,0.631274
0.853479,0.748092,0.9997,0.631211
0.852967,0.748028,0.9996,0.631148
0.852455,0.747963,0.9995,0.631085
0.851944,0.747899,0.9994,0.631022
0.851433,0.747835,0.9993,0.630959
0.850922,0.747771,0.9992,0.630896
0.850412,0.747707,0.9991,0.630833
0.849901,0.747643,0.999,0.630769
0.849391,0.747578,0.998901,0.630706
0.848882,0.747514,0.998801,0.630643
0.848373,0.74745,0.998701,0.63058
0.847864,0.747386,0.998601,0.630517
0.847355,0.747322,0.998501,0.630454
0.846847,0.747258,0.998401,0.630391
0.846339,0.747194,0.998301,0.630328
0.845831,0.747129,0.998202,0.630265
0.845323,0.747065,0.998102,0.630202
0.844816,0.747001,0.998002,0.630139
0.844309,0.746937,0.997902,0.630076
0.843803,0.746873,0.997802,0.630013
0.843297,0.746809,0.997703,0.62995
0.842791,0.746745,0.997603,0.629887
0.842285,0.746681,0.997503,0.629824
0.84178,0.746617,0.997403,0.629761
0.841275,0.746553,0.997304,0.629698
0.84077,0.746488,0.997204,0.629635
0.840265,0.746424,0.997104,0.629572
0.839761,0.74636,0.997004,0.629509
0.839258,0.746296,0.996905,0.629446
0.838754,0.746232,0.996805,0.629383
0.838251,0.746168,0.996705,0.62932
0.837748,0.746104,0.996606,0.629257
0.837245,0.74604,0.996506,0.629194
0.836743,0.745976,0.996406,0.629131
0.836241,0.745912,0.996307,0.629069
0.835739,0.745848,0.996207,0.629006
0.835238,0.745784,0.996107,0.628943
0.834737,0.74572,0.996008,0.62888
0.834236,0.745656,0.995908,0.628817
0.833735,0.745592,0.995809,0.628754
0.833235,0.745528,0.995709,0.628691
0.833152,0.745464,0.995609,0.628628
0.833069,0.7454,1,0.628565
0.832569,0.745336,0.9999,0.628503
0.832069,0.745272,0.9998,0.62844
0.83157,0.745208,0.9997,0.628377
0.831071,0.745144,0.9996,0.628314
0.830573,0.74508,0.9995,0.628251
0.830074,0.745016,0.9994,0.628188
0.829576,0.744952,0.9993,0.628126
0.829079,0.744888,0.9992,0.628063
0.828581,0.744825,0.9991,0.628
0.828084,0.744761,0.999,0.627937
0.827587,0.744697,0.998901,0.627874
0.827091,0.744633,0.998801,0.627812
0.826595,0.744569,0.998701,0.627749
0.826099,0.744505,0.998601,0.627686
0.825603,0.744441,0.998501,0.627623
0.825108,0.744377,0.998401,0.627561
0.824613,0.744313,0.998301,0.627498
0.824118,0.744249,0.998202,0.627435
0.823624,0.744186,0.998102,0.627372
0.823129,0.744122,0.998002,0.62731
0.822636,0.744058,0.997902,0.627247
0.822142,0.743994,0.997802,0.627184
0.821649,0.74393,0.997703,0.627121
0.821156,0.743866,0.997603,0.627059
0.820663,0.743802,0.997503,0.626996
0.820171,0.743739,0.997403,0.626933
0.819679,0.743675,0.997304,0.626871
0.819187,0.743611,0.997204,0.626808
0.818696,0.743547,0.997104,0.626745
0.818204,0.743483,0.997004,0.626683
0.817713,0.74342,0.996905,0.62662
0.817223,0.743356,0.996805,0.626557
0.816733,0.743292,0.996705,0.626495
0.816243,0.743228,0.996606,0.626432
0.815753,0.743164,0.996506,0.626369
0.815263,0.743101,0.996406,0.626307
0.814774,0.743037,0.996307,0.626244
0.814693,0.742973,0.996207,0.626181
0.814611,0.742909,1,0.626119
0.814123,0.742846,0.9999,0.626056
0.813634,0.742782,0.9998,0.625994
0.813146,0.742718,0.9997,0.625931
0.812658,0.742654,0.9996,0.625868
0.812171,0.742591,0.9995,0.625806
0.811683,0.742527,0.9994,0.625743
0.811196,0.742463,0.9993,0.625681
0.81071,0.742399,0.9992,0.625618
0.810223,0.742336,0.9991,0.625555
0.809737,0.742272,0.999,0.625493
0.809252,0.742208,0.998901,0.62543
0.808766,0.742145,0.998801,0.625368
0.808281,0.742081,0.998701,0.625305
0.807796,0.742017,0.998601,0.625243
0.807311,0.741954,0.998501,0.62518
0.806827,0.74189,0.998401,0.625118
0.806343,0.741826,0.998301,0.625055
0.805859,0.741763,0.998202,0.624993
0.805376,0.741699,0.998102,0.62493
0.804892,0.741635,0.998002,0.624868
0.80441,0.741572,0.997902,0.624805
0.803927,0.741508,0.997802,0.624743
0.803847,0.741444,0.997703,0.62468
0.803766,0.741381,1,0.624618
0.803284,0.741317,0.9999,0.624555
0.802802,0.741253,0.9998,0.624493
0.80232,0.74119,0.9997,0.62443
0.801839,0.741126,0.9996,0.624368
0.801358,0.741063,0.9995,0.624306
0.800877,0.740999,0.9994,0.624243
0.800397,0.740935,0.9993,0.624181
0.799916,0.740872,0.9992,0.624118
0.799437,0.740808,0.9991,0.624056
0.798957,0.740745,0.999,0.623993
0.798478,0.740681,0.998901,0.623931
0.797999,0.740618,0.998801,0.623869
0.79752,0.740554,0.998701,0.623806
0.797041,0.74049,0.998601,0.623744
0.796563,0.740427,0.998501,0.623682
0.796085,0.740363,0.998401,0.623619
0.795608,0.7403,0.998301,0.623557
0.79513,0.740236,0.998202,0.623494
0.794653,0.740173,0.998102,0.623432
0.794177,0.740109,0.998002,0.62337
0.7937,0.740046,0.997902,0.623307
0.793224,0.739982,0.997802,0.623245
0.792748,0.739919,0.997703,0.623183
0.792272,0.739855,0.997603,0.62312
0.791797,0.739792,0.997503,0.623058
0.791322,0.739728,0.997403,0.622996
0.790847,0.739665,0.997304,0.622934
0.790373,0.739601,0.997204,0.622871
0.789899,0.739538,0.997104,0.622809
0.789425,0.739474,0.997004,0.622747
0.788951,0.739411,0.996905,0.622684
0.788478,0.739347,0.996805,0.622622
0.788005,0.739284,0.996705,0.62256
0.787532,0.73922,0.996606,0.622498
0.787059,0.739157,0.996506,0.622435
0.786587,0.739094,0.996406,0.622373
0.786115,0.73903,0.996307,0.622311
0.785644,0.738967,0.996207,0.622249
0.785172,0.738903,0.996107,0.622186
0.784701,0.73884,0.996008,0.622124
0.784231,0.738776,0.995908,0.622062
0.78376,0.738713,0.995809,0.622
0.78329,0.73865,0.995709,0.621938
0.78282,0.738586,0.995609,0.621875
0.78235,0.738523,0.99551,0.621813
0.781881,0.73846,0.99541,0.621751
0.781412,0.738396,0.995311,0.621689
0.781334,0.738333,0.995211,0.621627
0.781255,0.738269,1,0.621564
0.780787,0.738206,0.9999,0.621502
0.780318,0.738143,0.9998,0.62144
0.77985,0.738079,0.9997,0.621378
0.779382,0.738016,0.9996,0.621316
0.778915,0.737953,0.9995,0.621254
0.778447,0.737889,0.9994,0.621192
0.77798,0.737826,0.9993,0.62113
0.777514,0.737763,0.9992,0.621067
0.777047,0.737699,0.9991,0.621005
0.776581,0.737636,0.999,0.620943
0.776115,0.737573,0.998901,0.620881
0.775649,0.737509,0.998801,0.620819
0.775184,0.737446,0.998701,0.620757
0.774719,0.737383,0.998601,0.620695
0.774254,0.73732,0.998501,0.620633
0.77379,0.737256,0.998401,0.620571
0.773712,0.737193,0.998301,0.620509
0.773635,0.73713,1,0.620447
0.773171,0.737067,0.9999,0.620385
0.772707,0.737003,0.9998,0.620323
0.772243,0.73694,0.9997,0.620261
0.77178,0.736877,0.9996,0.620198
0.771317,0.736814,0.9995,0.620136
0.770854,0.73675,0.9994,0.620074
0.770392,0.736687,0.9993,0.620012
0.76993,0.736624,0.9992,0.61995
0.769468,0.736561,0.9991,0.619888
0.769006,0.736497,0.999,0.619826
0.768545,0.736434,0.998901,0.619764
0.768084,0.736371,0.998801,0.619702
0.767623,0.736308,0.998701,0.619641
0.767162,0.736245,0.998601,0.619579
0.766702,0.736181,0.998501,0.619517
0.766242,0.736118,0.998401,0.619455
0.765782,0.736055,0.998301,0.619393
0.765323,0.735992,0.998202,0.619331
0.764864,0.735929,0.998102,0.619269
0.764405,0.735866,0.998002,0.619207
0.763946,0.735802,0.997902,0.619145
0.763488,0.735739,0.997802,0.619083
0.76303,0.735676,0.997703,0.619021
0.762954,0.735613,0.997603,0.618959
0.762877,0.73555,1,0.618897
0.76242,0.735487,0.9999,0.618835
0.761962,0.735424,0.9998,0.618774
0.761505,0.735361,0.9997,0.618712
0.761048,0.735297,0.9996,0.61865
0.760592,0.735234,0.9995,0.618588
0.760135,0.735171,0.9994,0.618526
0.759679,0.735108,0.9993,0.618464
0.759223,0.735045,0.9992,0.618402
0.758768,0.734982,0.9991,0.618341
0.758313,0.734919,0.999,0.618279
0.757858,0.734856,0.998901,0.618217
0.757403,0.734793,0.998801,0.618155
0.756949,0.73473,0.998701,0.618093
0.756495,0.734667,0.998601,0.618031
0.756041,0.734604,0.998501,0.61797
0.755587,0.734541,0.998401,0.617908
0.755134,0.734478,0.998301,0.617846
0.754681,0.734414,0.998202,0.617784
0.754228,0.734351,0.998102,0.617723
0.753775,0.734288,0.998002,0.617661
0.753323,0.734225,0.997902,0.617599
0.752871,0.734162,0.997802,0.617537
0.75242,0.734099,0.997703,0.617475
0.751968,0.734036,0.997603,0.617414
0.751893,0.733973,0.997503,0.617352
0.751818,0.73391,1,0.61729
0.751367,0.733847,0.9999,0.617229
0.750916,0.733784,0.9998,0.617167
0.750465,0.733721,0.9997,0.617105
0.750015,0.733658,0.9996,0.617043
0.749565,0.733596,0.9995,0.616982
0.749116,0.733533,0.9994,0.61692
0.748666,0.73347,0.9993,0.616858
0.748217,0.733407,0.9992,0.616797
0.747768,0.733344,0.9991,0.616735
0.747319,0.733281,0.999,0.616673
0.746871,0.733218,0.998901,0.616612
0.746423,0.733155,0.998801,0.61655
0.745975,0.733092,0.998701,0.616488
0.745528,0.733029,0.998601,0.616427
0.74508,0.732966,0.998501,0.616365
0.744633,0.732903,0.998401,0.616303
0.744187,0.73284,0.998301,0.616242
0.74374,0.732778,0.998202,0.61618
0.743294,0.732715,0.998102,0.616118
0.74322,0.732652,0.998002,0.616057
0.743145,0.732589,1,0.615995
0.742699,0.732526,0.9999,0.615934
0.742254,0.732463,0.9998,0.615872
0.741809,0.7324,0.9997,0.61581
0.741363,0.732337,0.9996,0.615749
0.740919,0.732275,0.9995,0.615687
0.740474,0.732212,0.9994,0.615626
0.74003,0.732149,0.9993,0.615564
0.739586,0.732086,0.9992,0.615503
0.739142,0.732023,0.9991,0.615441
0.738699,0.73196,0.999,0.61538
0.738256,0.731898,0.998901,0.615318
0.737813,0.731835,0.998801,0.615256
0.73737,0.731772,0.998701,0.615195
0.736928,0.731709,0.998601,0.615133
0.736486,0.731646,0.998501,0.615072
0.736044,0.731584,0.998401,0.61501
0.735602,0.731521,0.998301,0.614949
0.735161,0.731458,0.998202,0.614887
0.73472,0.731395,0.998102,0.614826
0.734279,0.731332,0.998002,0.614764
0.733838,0.73127,0.997902,0.614703
0.733398,0.731207,0.997802,0.614641
0.732958,0.731144,0.997703,0.61458
0.732518,0.731081,0.997603,0.614519
0.732079,0.731019,0.997503,0.614457
0.73164,0.730956,0.997403,0.614396
0.731567,0.730893,0.997304,0.614334
0.731493,0.730831,1,0.614273
0.731054,0.730768,0.9999,0.614211
0.730616,0.730705,0.9998,0.61415
0.730178,0.730642,0.9997,0.614089
0.729739,0.73058,0.9996,0.614027
0.729302,0.730517,0.9995,0.613966
0.728864,0.730454,0.9994,0.613904
0.728427,0.730392,0.9993,0.613843
0.72799,0.730329,0.9992,0.613782
0.727553,0.730266,0.9991,0.61372
0.727117,0.730204,0.999,0.613659
0.72668,0.730141,0.998901,0.613597
0.726244,0.730078,0.998801,0.613536
0.725809,0.730016,0.998701,0.613475
0.725373,0.729953,0.998601,0.613413
0.724938,0.72989,0.998501,0.613352
0.724503,0.729828,0.998401,0.613291
0.724068,0.729765,0.998301,0.613229
0.723634,0.729702,0.998202,0.613168
0.7232,0.72964,0.998102,0.613107
