energy,productivity,fun,hunger
0.855278,0.806212,0.718331,0.916338
0.855193,0.806173,0.718259,0.916247
0.855107,0.806135,0.718187,0.916155
0.855022,0.806096,0.718116,0.916063
0.854936,0.806058,0.718044,0.915972
0.854851,0.80602,0.717972,0.91588
0.854765,0.805981,0.7179,0.915788
0.85468,0.805943,0.717828,0.915697
0.854594,0.805905,0.717757,0.915605
0.854509,0.805866,0.717685,0.915514
0.854424,0.805828,0.717613,0.915422
0.854338,0.805789,0.717541,0.915331
0.854253,0.805751,0.71747,0.915239
0.854167,0.805713,0.717398,0.915148
0.854082,0.805674,0.717326,0.915056
0.853996,0.805636,0.717254,0.914965
0.853911,0.805598,0.717183,0.914873
0.853826,0.805559,0.717111,0.914782
0.85374,0.805521,0.717039,0.91469
0.853655,0.805483,0.716968,0.914599
0.85357,0.805444,0.716896,0.914507
0.853484,0.805406,0.716824,0.914416
0.853399,0.805367,0.716752,0.914324
0.853313,0.805329,0.716681,0.914233
0.853228,0.805291,0.716609,0.914141
0.853143,0.805252,0.716537,0.91405
0.853058,0.805214,0.716466,0.913959
0.852972,0.805176,0.716394,0.913867
0.852887,0.805137,0.716322,0.913776
0.852802,0.805099,0.716251,0.913684
0.852716,0.805061,0.716179,0.913593
0.852631,0.805022,0.716108,0.913502
0.852546,0.804984,0.716036,0.91341
0.852461,0.804946,0.715964,0.913319
0.852375,0.804907,0.715893,0.913228
0.85229,0.804869,0.715821,0.913136
0.852205,0.804831,0.71575,0.913045
0.85212,0.804792,0.715678,0.912954
0.852034,0.804754,0.715606,0.912863
0.851949,0.804716,0.715535,0.912771
0.851864,0.804677,0.715463,0.91268
0.851779,0.804639,0.715392,0.912589
0.851694,0.804601,0.71532,0.912497
0.851608,0.804563,0.715249,0.912406
0.851523,0.804524,0.715177,0.912315
0.851438,0.804486,0.715106,0.912224
0.851353,0.804448,0.715034,0.912132
0.851268,0.804409,0.714963,0.912041
0.851183,0.804371,0.714891,0.91195
0.851098,0.804333,0.71482,0.911859
0.851013,0.804294,0.714748,0.911768
0.850927,0.804256,0.714677,0.911676
0.850842,0.804218,0.714605,0.911585
0.850757,0.80418,0.714534,0.911494
0.850672,0.804141,0.714462,0.911403
0.850587,0.804103,0.714391,0.911312
0.850502,0.804065,0.714319,0.911221
0.850417,0.804026,0.714248,0.91113
0.850332,0.803988,0.714177,0.911039
0.850247,0.80395,0.714105,0.910947
0.850162,0.803912,0.714034,0.910856
0.850077,0.803873,0.713962,0.910765
0.849992,0.803835,0.713891,0.910674
0.849907,0.803797,0.71382,0.910583
0.849822,0.803758,0.713748,0.910492
0.849737,0.80372,0.713677,0.910401
0.849652,0.803682,0.713605,0.91031
0.849567,0.803644,0.713534,0.910219
0.849482,0.803605,0.713463,0.910128
0.849397,0.803567,0.713391,0.910037
0.849312,0.803529,0.71332,0.909946
0.849227,0.803491,0.713249,0.909855
0.849142,0.803452,0.713177,0.909764
0.849057,0.803414,0.713106,0.909673
0.848972,0.803376,0.713035,0.909582
0.848888,0.803338,0.712964,0.909491
0.848803,0.803299,0.712892,0.9094
0.848718,0.803261,0.712821,0.909309
0.848633,0.803223,0.71275,0.909218
0.848548,0.803185,0.712678,0.909127
0.848463,0.803146,0.712607,0.909036
0.848378,0.803108,0.712536,0.908945
0.848294,0.80307,0.712465,0.908855
0.848209,0.803032,0.712393,0.908764
0.848124,0.802993,0.712322,0.908673
0.848039,0.802955,0.712251,0.908582
0.847954,0.802917,0.71218,0.908491
0.847869,0.802879,0.712108,0.9084
0.847785,0.80284,0.712037,0.908309
0.8477,0.802802,0.711966,0.908219
0.847615,0.802764,0.711895,0.908128
0.84753,0.802726,0.711824,0.908037
0.847446,0.802687,0.711752,0.907946
0.847361,0.802649,0.711681,0.907855
0.847276,0.802611,0.71161,0.907765
0.847191,0.802573,0.711539,0.907674
0.847107,0.802535,0.711468,0.907583
0.847022,0.802496,0.711397,0.907492
0.846937,0.802458,0.711325,0.907401
0.846853,0.80242,0.711254,0.907311
0.846768,0.802382,0.711183,0.90722
0.846683,0.802344,0.711112,0.907129
0.846599,0.802305,0.711041,0.907039
0.846514,0.802267,0.71097,0.906948
0.846429,0.802229,0.710899,0.906857
0.846345,0.802191,0.710828,0.906766
0.84626,0.802153,0.710757,0.906676
0.846175,0.802114,0.710686,0.906585
0.846091,0.802076,0.710614,0.906494
0.846006,0.802038,0.710543,0.906404
0.845921,0.802,0.710472,0.906313
0.845837,0.801962,0.710401,0.906223
0.845752,0.801923,0.71033,0.906132
0.845668,0.801885,0.710259,0.906041
0.845583,0.801847,0.710188,0.905951
0.845499,0.801809,0.710117,0.90586
0.845414,0.801771,0.710046,0.90577
0.84533,0.801733,0.709975,0.905679
0.845245,0.801694,0.709904,0.905588
0.84516,0.801656,0.709833,0.905498
0.845076,0.801618,0.709762,0.905407
0.844991,0.80158,0.709691,0.905317
0.844907,0.801542,0.70962,0.905226
0.844822,0.801504,0.709549,0.905136
0.844738,0.801465,0.709478,0.905045
0.844654,0.801427,0.709407,0.904955
0.844569,0.801389,0.709336,0.904864
0.844485,0.801351,0.709266,0.904774
0.8444,0.801313,0.709195,0.904683
0.844316,0.801275,0.709124,0.904593
0.844231,0.801236,0.709053,0.904502
0.844147,0.801198,0.708982,0.904412
0.844062,0.80116,0.708911,0.904321
0.843978,0.801122,0.70884,0.904231
0.843894,0.801084,0.708769,0.904141
0.843809,0.801046,0.708698,0.90405
0.843725,0.801008,0.708627,0.90396
0.84364,0.800969,0.708557,0.903869
0.843556,0.800931,0.708486,0.903779
0.843472,0.800893,0.708415,0.903689
0.843387,0.800855,0.708344,0.903598
0.843303,0.800817,0.708273,0.903508
0.843219,0.800779,0.708202,0.903417
0.843134,0.800741,0.708132,0.903327
0.84305,0.800702,0.708061,0.903237
0.842966,0.800664,0.70799,0.903146
0.842882,0.800626,0.707919,0.903056
0.842797,0.800588,0.707848,0.902966
0.842713,0.80055,0.707778,0.902876
0.842629,0.800512,0.707707,0.902785
0.842544,0.800474,0.707636,0.902695
0.84246,0.800436,0.707565,0.902605
0.842376,0.800397,0.707494,0.902514
0.842292,0.800359,0.707424,0.902424
0.842207,0.800321,0.707353,0.902334
0.842123,0.800283,0.707282,0.902244
0.842039,0.800245,0.707212,0.902154
0.841955,0.800207,0.707141,0.902063
0.841871,0.800169,0.70707,0.901973
0.841786,0.800131,0.706999,0.901883
0.841702,0.800093,0.706929,0.901793
0.841618,0.800055,0.706858,0.901703
0.841534,0.800016,0.706787,0.901612
0.84145,0.799978,0.706717,0.901522
0.841366,0.79994,0.706646,0.901432
0.841281,0.799902,0.706575,0.901342
0.841197,0.799864,0.706505,0.901252
0.841113,0.799826,0.706434,0.901162
0.841029,0.799788,0.706363,0.901072
0.840945,0.79975,0.706293,0.900981
0.840861,0.799712,0.706222,0.900891
0.840777,0.799674,0.706151,0.900801
0.840693,0.799636,0.706081,0.900711
0.840609,0.799598,0.70601,0.900621
0.840525,0.799559,0.70594,0.900531
0.840441,0.799521,0.705869,0.900441
0.840357,0.799483,0.705798,0.900351
0.840272,0.799445,0.705728,0.900261
0.840188,0.799407,0.705657,0.900171
0.840104,0.799369,0.705587,0.900081
0.84002,0.799331,0.705516,0.899991
0.839936,0.799293,0.705446,0.899901
0.839852,0.799255,0.705375,0.899811
0.839768,0.799217,0.705305,0.899721
0.839684,0.799179,0.705234,0.899631
0.839601,0.799141,0.705163,0.899541
0.839517,0.799103,0.705093,0.899451
0.839433,0.799065,0.705022,0.899361
0.839349,0.799027,0.704952,0.899271
0.839265,0.798989,0.704881,0.899181
0.839181,0.798951,0.704811,0.899091
0.839097,0.798912,0.704741,0.899001
0.839013,0.798874,0.70467,0.898911
0.838929,0.798836,0.7046,0.898822
0.838845,0.798798,0.704529,0.898732
0.838761,0.79876,0.704459,0.898642
0.838677,0.798722,0.704388,0.898552
0.838594,0.798684,0.704318,0.898462
0.83851,0.798646,0.704247,0.898372
0.838426,0.798608,0.704177,0.898282
0.838342,0.79857,0.704106,0.898193
0.838258,0.798532,0.704036,0.898103
0.838174,0.798494,0.703966,0.898013
0.838091,0.798456,0.703895,0.897923
0.838007,0.798418,0.703825,0.897833
0.837923,0.79838,0.703755,0.897744
0.837839,0.798342,0.703684,0.897654
0.837755,0.798304,0.703614,0.897564
0.837672,0.798266,0.703543,0.897474
0.837588,0.798228,0.703473,0.897384
0.837504,0.79819,0.703403,0.897295
0.83742,0.798152,0.703332,0.897205
0.837337,0.798114,0.703262,0.897115
0.837253,0.798076,0.703192,0.897026
0.837169,0.798038,0.703121,0.896936
0.837085,0.798,0.703051,0.896846
0.837002,0.797962,0.702981,0.896757
0.836918,0.797924,0.70291,0.896667
0.836834,0.797886,0.70284,0.896577
0.836751,0.797848,0.70277,0.896488
0.836667,0.79781,0.7027,0.896398
0.836583,0.797772,0.702629,0.896308
0.8365,0.797734,0.702559,0.896219
0.836416,0.797696,0.702489,0.896129
0.836332,0.797658,0.702419,0.896039
0.836249,0.79762,0.702348,0.89595
0.836165,0.797582,0.702278,0.89586
0.836081,0.797544,0.702208,0.895771
0.835998,0.797506,0.702138,0.895681
0.835914,0.797468,0.702067,0.895591
0.835831,0.79743,0.701997,0.895502
0.835747,0.797392,0.701927,0.895412
0.835663,0.797354,0.701857,0.895323
0.83558,0.797316,0.701787,0.895233
0.835496,0.797278,0.701716,0.895144
0.835413,0.79724,0.701646,0.895054
0.835329,0.797202,0.701576,0.894965
0.835246,0.797164,0.701506,0.894875
0.835162,0.797127,0.701436,0.894786
0.835079,0.797089,0.701366,0.894696
0.834995,0.797051,0.701296,0.894607
0.834912,0.797013,0.701225,0.894517
0.834828,0.796975,0.701155,0.894428
0.834745,0.796937,0.701085,0.894338
0.834661,0.796899,0.701015,0.894249
0.834578,0.796861,0.700945,0.89416
0.834494,0.796823,0.700875,0.89407
0.834411,0.796785,0.700805,0.893981
0.834327,0.796747,0.700735,0.893891
0.834244,0.796709,0.700665,0.893802
0.834161,0.796671,0.700595,0.893713
0.834077,0.796633,0.700525,0.893623
0.833994,0.796595,0.700454,0.893534
0.83391,0.796557,0.700384,0.893444
0.833827,0.796519,0.700314,0.893355
0.833744,0.796482,0.700244,0.893266
0.83366,0.796444,0.700174,0.893176
0.833577,0.796406,0.700104,0.893087
0.833493,0.796368,0.700034,0.892998
0.83341,0.79633,0.699964,0.892909
0.833327,0.796292,0.699894,0.892819
0.833243,0.796254,0.699824,0.89273
0.83316,0.796216,0.699754,0.892641
0.833077,0.796178,0.699684,0.892551
0.832993,0.79614,0.699614,0.892462
0.83291,0.796102,0.699544,0.892373
0.832827,0.796064,0.699474,0.892284
0.832744,0.796027,0.699405,0.892194
0.83266,0.795989,0.699335,0.892105
0.832577,0.795951,0.699265,0.892016
0.832494,0.795913,0.699195,0.891927
0.832411,0.795875,0.699125,0.891838
0.832327,0.795837,0.699055,0.891748
0.832244,0.795799,0.698985,0.891659
0.832161,0.795761,0.698915,0.89157
0.832078,0.795723,0.698845,0.891481
0.831994,0.795685,0.698775,0.891392
0.831911,0.795648,0.698705,0.891303
0.831828,0.79561,0.698636,0.891214
0.831745,0.795572,0.698566,0.891124
0.831662,0.795534,0.698496,0.891035
0.831579,0.795496,0.698426,0.890946
0.831495,0.795458,0.698356,0.890857
0.831412,0.79542,0.698286,0.890768
0.831329,0.795382,0.698216,0.890679
0.831246,0.795345,0.698147,0.89059
0.831163,0.795307,0.698077,0.890501
0.83108,0.795269,0.698007,0.890412
0.830997,0.795231,0.697937,0.890323
0.830913,0.795193,0.697867,0.890234
0.83083,0.795155,0.697798,0.890145
0.830747,0.795117,0.697728,0.890056
0.830664,0.79508,0.697658,0.889967
0.830581,0.795042,0.697588,0.889878
0.830498,0.795004,0.697519,0.889789
0.830415,0.794966,0.697449,0.8897
0.830332,0.794928,0.697379,0.889611
0.830249,0.79489,0.697309,0.889522
0.830166,0.794852,0.69724,0.889433
0.830083,0.794815,0.69717,0.889344
0.83,0.794777,0.6971,0.889255
0.829917,0.794739,0.69703,0.889166
0.829834,0.794701,0.696961,0.889077
0.829751,0.794663,0.696891,0.888988
0.829668,0.794625,0.696821,0.888899
0.829585,0.794587,0.696752,0.88881
0.829502,0.79455,0.696682,0.888722
0.829419,0.794512,0.696612,0.888633
0.829336,0.794474,0.696543,0.888544
0.829253,0.794436,0.696473,0.888455
0.82917,0.794398,0.696403,0.888366
0.829087,0.794361,0.696334,0.888277
0.829004,0.794323,0.696264,0.888188
0.828922,0.794285,0.696194,0.8881
0.828839,0.794247,0.696125,0.888011
0.828756,0.794209,0.696055,0.887922
0.828673,0.794171,0.695986,0.887833
0.82859,0.794134,0.695916,0.887744
0.828507,0.794096,0.695846,0.887656
0.828424,0.794058,0.695777,0.887567
0.828342,0.79402,0.695707,0.887478
0.828259,0.793982,0.695638,0.887389
0.828176,0.793945,0.695568,0.887301
0.828093,0.793907,0.695499,0.887212
0.82801,0.793869,0.695429,0.887123
0.827927,0.793831,0.69536,0.887034
0.827845,0.793793,0.69529,0.886946
0.827762,0.793756,0.69522,0.886857
0.827679,0.793718,0.695151,0.886768
0.827596,0.79368,0.695081,0.88668
0.827514,0.793642,0.695012,0.886591
0.827431,0.793604,0.694942,0.886502
0.827348,0.793567,0.694873,0.886414
0.827265,0.793529,0.694803,0.886325
0.827183,0.793491,0.694734,0.886236
0.8271,0.793453,0.694664,0.886148
0.827017,0.793415,0.694595,0.886059
0.826934,0.793378,0.694526,0.885971
0.826852,0.79334,0.694456,0.885882
0.826769,0.793302,0.694387,0.885793
0.826686,0.793264,0.694317,0.885705
0.826604,0.793227,0.694248,0.885616
0.826521,0.793189,0.694178,0.885528
0.826438,0.793151,0.694109,0.885439
0.826356,0.793113,0.69404,0.885351
0.826273,0.793076,0.69397,0.885262
0.826191,0.793038,0.693901,0.885174
0.826108,0.793,0.693831,0.885085
0.826025,0.792962,0.693762,0.884997
0.825943,0.792924,0.693693,0.884908
0.82586,0.792887,0.693623,0.88482
0.825777,0.792849,0.693554,0.884731
0.825695,0.792811,0.693484,0.884643
0.825612,0.792773,0.693415,0.884554
0.82553,0.792736,0.693346,0.884466
0.825447,0.792698,0.693276,0.884377
0.825365,0.79266,0.693207,0.884289
0.825282,0.792622,0.693138,0.8842
0.8252,0.792585,0.693068,0.884112
0.825117,0.792547,0.692999,0.884024
0.825035,0.792509,0.69293,0.883935
0.824952,0.792472,0.692861,0.883847
0.82487,0.792434,0.692791,0.883758
0.824787,0.792396,0.692722,0.88367
0.824705,0.792358,0.692653,0.883582
0.824622,0.792321,0.692583,0.883493
0.82454,0.792283,0.692514,0.883405
0.824457,0.792245,0.692445,0.883317
0.824375,0.792207,0.692376,0.883228
0.824292,0.79217,0.692306,0.88314
0.82421,0.792132,0.692237,0.883052
0.824128,0.792094,0.692168,0.882963
0.824045,0.792057,0.692099,0.882875
0.823963,0.792019,0.69203,0.882787
0.82388,0.791981,0.69196,0.882698
0.823798,0.791943,0.691891,0.88261
0.823716,0.791906,0.691822,0.882522
0.823633,0.791868,0.691753,0.882434
0.823551,0.79183,0.691684,0.882345
0.823468,0.791793,0.691614,0.882257
0.823386,0.791755,0.691545,0.882169
0.823304,0.791717,0.691476,0.882081
0.823221,0.791679,0.691407,0.881993
0.823139,0.791642,0.691338,0.881904
0.823057,0.791604,0.691269,0.881816
0.822974,0.791566,0.6912,0.881728
0.822892,0.791529,0.691131,0.88164
0.82281,0.791491,0.691061,0.881552
0.822728,0.791453,0.690992,0.881463
0.822645,0.791416,0.690923,0.881375
0.822563,0.791378,0.690854,0.881287
0.822481,0.79134,0.690785,0.881199
0.822399,0.791303,0.690716,0.881111
0.822316,0.791265,0.690647,0.881023
0.822234,0.791227,0.690578,0.880935
0.822152,0.79119,0.690509,0.880847
0.82207,0.791152,0.69044,0.880759
0.821987,0.791114,0.690371,0.88067
0.821905,0.791077,0.690302,0.880582
0.821823,0.791039,0.690233,0.880494
0.821741,0.791001,0.690164,0.880406
0.821659,0.790964,0.690095,0.880318
0.821577,0.790926,0.690026,0.88023
0.821494,0.790888,0.689957,0.880142
0.821412,0.790851,0.689888,0.880054
0.82133,0.790813,0.689819,0.879966
0.821248,0.790775,0.68975,0.879878
0.821166,0.790738,0.689681,0.87979
0.821084,0.7907,0.689612,0.879702
0.821002,0.790662,0.689543,0.879614
0.82092,0.790625,0.689474,0.879526
0.820837,0.790587,0.689405,0.879438
0.820755,0.790549,0.689336,0.87935
0.820673,0.790512,0.689267,0.879262
0.820591,0.790474,0.689198,0.879174
0.820509,0.790436,0.689129,0.879087
0.820427,0.790399,0.68906,0.878999
0.820345,0.790361,0.688991,0.878911
0.820263,0.790324,0.688922,0.878823
0.820181,0.790286,0.688853,0.878735
0.820099,0.790248,0.688785,0.878647
0.820017,0.790211,0.688716,0.878559
0.819935,0.790173,0.688647,0.878471
0.819853,0.790135,0.688578,0.878384
0.819771,0.790098,0.688509,0.878296
0.819689,0.79006,0.68844,0.878208
0.819607,0.790023,0.688371,0.87812
0.819525,0.789985,0.688303,0.878032
0.819443,0.789947,0.688234,0.877944
0.819361,0.78991,0.688165,0.877857
0.819279,0.789872,0.688096,0.877769
0.819197,0.789834,0.688027,0.877681
0.819115,0.789797,0.687958,0.877593
0.819033,0.789759,0.68789,0.877506
0.818952,0.789722,0.687821,0.877418
0.81887,0.789684,0.687752,0.87733
0.818788,0.789646,0.687683,0.877242
0.818706,0.789609,0.687615,0.877155
0.818624,0.789571,0.687546,0.877067
0.818542,0.789534,0.687477,0.876979
0.81846,0.789496,0.687408,0.876891
0.818378,0.789458,0.68734,0.876804
0.818297,0.789421,0.687271,0.876716
0.818215,0.789383,0.687202,0.876628
0.818133,0.789346,0.687133,0.876541
0.818051,0.789308,0.687065,0.876453
0.817969,0.789271,0.686996,0.876365
0.817888,0.789233,0.686927,0.876278
0.817806,0.789195,0.686859,0.87619
0.817724,0.789158,0.68679,0.876103
0.817642,0.78912,0.686721,0.876015
0.81756,0.789083,0.686653,0.875927
0.817479,0.789045,0.686584,0.87584
0.817397,0.789008,0.686515,0.875752
0.817315,0.78897,0.686447,0.875665
0.817233,0.788932,0.686378,0.875577
0.817152,0.788895,0.686309,0.87549
0.81707,0.788857,0.686241,0.875402
0.816988,0.78882,0.686172,0.875314
0.816907,0.788782,0.686103,0.875227
0.816825,0.788745,0.686035,0.875139
0.816743,0.788707,0.685966,0.875052
0.816662,0.788669,0.685898,0.874964
0.81658,0.788632,0.685829,0.874877
0.816498,0.788594,0.68576,0.874789
0.816417,0.788557,0.685692,0.874702
0.816335,0.788519,0.685623,0.874614
0.816253,0.788482,0.685555,0.874527
0.816172,0.788444,0.685486,0.87444
0.81609,0.788407,0.685418,0.874352
0.816008,0.788369,0.685349,0.874265
0.815927,0.788332,0.685281,0.874177
0.815845,0.788294,0.685212,0.87409
0.815764,0.788256,0.685143,0.874002
0.815682,0.788219,0.685075,0.873915
0.815601,0.788181,0.685006,0.873828
0.815519,0.788144,0.684938,0.87374
0.815437,0.788106,0.684869,0.873653
0.815356,0.788069,0.684801,0.873565
0.815274,0.788031,0.684732,0.873478
0.815193,0.787994,0.684664,0.873391
0.815111,0.787956,0.684596,0.873303
0.81503,0.787919,0.684527,0.873216
0.814948,0.787881,0.684459,0.873129
0.814867,0.787844,0.68439,0.873041
0.814785,0.787806,0.684322,0.872954
0.814704,0.787769,0.684253,0.872867
0.814622,0.787731,0.684185,0.87278
0.814541,0.787694,0.684116,0.872692
0.814459,0.787656,0.684048,0.872605
0.814378,0.787619,0.68398,0.872518
0.814297,0.787581,0.683911,0.872431
0.814215,0.787544,0.683843,0.872343
0.814134,0.787506,0.683774,0.872256
0.814052,0.787469,0.683706,0.872169
0.813971,0.787431,0.683638,0.872082
0.81389,0.787394,0.683569,0.871994
0.813808,0.787356,0.683501,0.871907
0.813727,0.787319,0.683433,0.87182
0.813645,0.787281,0.683364,0.871733
0.813564,0.787244,0.683296,0.871646
0.813483,0.787206,0.683228,0.871558
0.813401,0.787169,0.683159,0.871471
0.81332,0.787131,0.683091,0.871384
0.813239,0.787094,0.683023,0.871297
0.813157,0.787056,0.682954,0.87121
0.813076,0.787019,0.682886,0.871123
0.812995,0.786981,0.682818,0.871036
0.812913,0.786944,0.68275,0.870949
0.812832,0.786906,0.682681,0.870861
0.812751,0.786869,0.682613,0.870774
0.81267,0.786831,0.682545,0.870687
0.812588,0.786794,0.682476,0.8706
0.812507,0.786757,0.682408,0.870513
0.812426,0.786719,0.68234,0.870426
0.812345,0.786682,0.682272,0.870339
0.812263,0.786644,0.682204,0.870252
0.812182,0.786607,0.682135,0.870165
0.812101,0.786569,0.682067,0.870078
0.81202,0.786532,0.681999,0.869991
0.811938,0.786494,0.681931,0.869904
0.811857,0.786457,0.681862,0.869817
0.811776,0.786419,0.681794,0.86973
0.811695,0.786382,0.681726,0.869643
0.811614,0.786345,0.681658,0.869556
0.811533,0.786307,0.68159,0.869469
0.811451,0.78627,0.681522,0.869382
0.81137,0.786232,0.681453,0.869295
0.811289,0.786195,0.681385,0.869208
0.811208,0.786157,0.681317,0.869121
0.811127,0.78612,0.681249,0.869034
0.811046,0.786082,0.681181,0.868948
0.810965,0.786045,0.681113,0.868861
0.810884,0.786008,0.681045,0.868774
0.810802,0.78597,0.680977,0.868687
0.810721,0.785933,0.680908,0.8686
0.81064,0.785895,0.68084,0.868513
0.810559,0.785858,0.680772,0.868426
0.810478,0.785821,0.680704,0.86834
0.810397,0.785783,0.680636,0.868253
0.810316,0.785746,0.680568,0.868166
0.810235,0.785708,0.6805,0.868079
0.810154,0.785671,0.680432,0.867992
0.810073,0.785633,0.680364,0.867905
0.809992,0.785596,0.680296,0.867819
0.809911,0.785559,0.680228,0.867732
0.80983,0.785521,0.68016,0.867645
0.809749,0.785484,0.680092,0.867558
0.809668,0.785446,0.680024,0.867472
0.809587,0.785409,0.679956,0.867385
0.809506,0.785372,0.679888,0.867298
0.809425,0.785334,0.67982,0.867211
0.809344,0.785297,0.679752,0.867125
0.809263,0.785259,0.679684,0.867038
0.809182,0.785222,0.679616,0.866951
0.809101,0.785185,0.679548,0.866865
0.809021,0.785147,0.67948,0.866778
0.80894,0.78511,0.679412,0.866691
0.808859,0.785073,0.679344,0.866604
0.808778,0.785035,0.679276,0.866518
0.808697,0.784998,0.679208,0.866431
