energy,productivity,fun,hunger
0.932406,0.88069,0.830524,0.917045
0.932312,0.880601,0.855354,0.916953
0.931753,0.880512,0.855268,0.916862
0.931194,0.880423,0.855183,0.91677
0.930635,0.880335,0.855097,0.916678
0.930077,0.880246,0.855012,0.916587
0.929519,0.880157,0.854926,0.916495
0.928961,0.880068,0.854841,0.916403
0.928404,0.879979,0.854755,0.916312
0.927847,0.879891,0.85467,0.91622
0.92729,0.879802,0.854584,0.916128
0.926734,0.879713,0.854499,0.916037
0.926178,0.879624,0.854413,0.915945
0.925622,0.879535,0.854328,0.915854
0.925067,0.879447,0.854242,0.915762
0.924512,0.879358,0.854157,0.91567
0.923957,0.879269,0.854072,0.915579
0.923403,0.87918,0.853986,0.915487
0.922849,0.879092,0.853901,0.915396
0.922295,0.879003,0.853815,0.915304
0.921742,0.878914,0.85373,0.915213
0.921189,0.878825,0.853645,0.915121
0.920636,0.878737,0.853559,0.91503
0.920084,0.878648,0.853474,0.914938
0.919532,0.878559,0.853389,0.914847
0.91898,0.878471,0.853303,0.914755
0.918429,0.878382,0.853218,0.914664
0.917878,0.878293,0.853133,0.914572
0.917327,0.878205,0.853047,0.914481
0.916777,0.878116,0.852962,0.914389
0.916227,0.878028,0.852877,0.914298
0.915677,0.877939,0.852791,0.914206
0.915128,0.87785,0.852706,0.914115
0.914579,0.877762,0.852621,0.914024
0.91403,0.877673,0.852536,0.913932
0.913482,0.877585,0.85245,0.913841
0.912934,0.877496,0.852365,0.913749
0.912386,0.877407,0.85228,0.913658
0.911839,0.877319,0.852195,0.913567
0.911292,0.87723,0.852109,0.913475
0.910745,0.877142,0.852024,0.913384
0.910198,0.877053,0.851939,0.913293
0.909652,0.876965,0.851854,0.913201
0.909107,0.876876,0.851769,0.91311
0.908561,0.876788,0.851683,0.913019
0.908016,0.876699,0.851598,0.912927
0.907471,0.876611,0.851513,0.912836
0.906927,0.876522,0.851428,0.912745
0.906383,0.876434,0.851343,0.912654
0.905839,0.876345,0.851258,0.912562
0.905296,0.876257,0.851173,0.912471
0.904752,0.876169,0.851087,0.91238
0.90421,0.87608,0.851002,0.912289
0.903667,0.875992,0.850917,0.912197
0.903125,0.875903,0.850832,0.912106
0.902583,0.875815,0.850747,0.912015
0.902042,0.875727,0.850662,0.911924
0.9015,0.875638,0.850577,0.911832
0.90096,0.87555,0.850492,0.911741
0.900419,0.875461,0.850407,0.91165
0.899879,0.875373,0.850322,0.911559
0.899339,0.875285,0.850237,0.911468
0.898799,0.875196,0.850152,0.911377
0.89826,0.875108,0.850067,0.911286
0.897721,0.87502,0.849982,0.911194
0.897183,0.874931,0.849897,0.911103
0.896644,0.874843,0.849812,0.911012
0.896106,0.874755,0.849727,0.910921
0.896017,0.874667,0.849642,0.91083
0.895927,0.874578,0.875044,0.910739
0.89539,0.87449,0.874956,0.910648
0.894853,0.874402,0.874869,0.910557
0.894316,0.874314,0.874781,0.910466
0.893779,0.874225,0.874694,0.910375
0.893243,0.874137,0.874606,0.910284
0.892707,0.874049,0.874519,0.910193
0.892171,0.873961,0.874431,0.910102
0.891636,0.873872,0.874344,0.910011
0.891101,0.873784,0.874256,0.90992
0.890567,0.873696,0.874169,0.909829
0.890032,0.873608,0.874081,0.909738
0.889498,0.87352,0.873994,0.909647
0.888965,0.873432,0.873907,0.909556
0.888431,0.873343,0.873819,0.909465
0.887898,0.873255,0.873732,0.909374
0.887366,0.873167,0.873645,0.909283
0.886833,0.873079,0.873557,0.909192
0.886301,0.872991,0.87347,0.909101
0.88577,0.872903,0.873382,0.90901
0.885238,0.872815,0.873295,0.908919
0.884707,0.872727,0.873208,0.908828
0.884176,0.872639,0.87312,0.908737
0.883646,0.872551,0.873033,0.908646
0.883116,0.872462,0.872946,0.908556
0.882586,0.872374,0.872859,0.908465
0.882056,0.872286,0.872771,0.908374
0.881527,0.872198,0.872684,0.908283
0.880998,0.87211,0.872597,0.908192
0.88047,0.872022,0.872509,0.908101
0.879941,0.871934,0.872422,0.908011
0.879414,0.871846,0.872335,0.90792
0.878886,0.871758,0.872248,0.907829
0.878359,0.87167,0.872161,0.907738
0.877832,0.871582,0.872073,0.907647
0.877305,0.871494,0.871986,0.907557
0.876779,0.871406,0.871899,0.907466
0.876253,0.871319,0.871812,0.907375
0.875727,0.871231,0.871725,0.907284
0.875202,0.871143,0.871637,0.907194
0.874676,0.871055,0.87155,0.907103
0.874152,0.870967,0.871463,0.907012
0.873627,0.870879,0.871376,0.906922
0.873103,0.870791,0.871289,0.906831
0.872579,0.870703,0.871202,0.90674
0.872056,0.870615,0.871114,0.90665
0.871533,0.870527,0.871027,0.906559
0.87101,0.87044,0.87094,0.906468
0.870487,0.870352,0.870853,0.906378
0.869965,0.870264,0.870766,0.906287
0.869443,0.870176,0.870679,0.906196
0.868921,0.870088,0.870592,0.906106
0.8684,0.87,0.870505,0.906015
0.867879,0.869913,0.870418,0.905924
0.867358,0.869825,0.870331,0.905834
0.866838,0.869737,0.870244,0.905743
0.866318,0.869649,0.870157,0.905653
0.865798,0.869562,0.87007,0.905562
0.865279,0.869474,0.869983,0.905472
0.86476,0.869386,0.869896,0.905381
0.864241,0.869298,0.869809,0.905291
0.863722,0.869211,0.869722,0.9052
0.863204,0.869123,0.869635,0.905109
0.862686,0.869035,0.869548,0.905019
0.862169,0.868947,0.869461,0.904928
0.861651,0.86886,0.869374,0.904838
0.861565,0.868772,0.869287,0.904748
0.861479,0.868684,0.895276,0.904657
0.860962,0.868597,0.895187,0.904567
0.860446,0.868509,0.895097,0.904476
0.859929,0.868421,0.895007,0.904386
0.859414,0.868334,0.894918,0.904295
0.858898,0.868246,0.894828,0.904205
0.858383,0.868158,0.894739,0.904114
0.857868,0.868071,0.89465,0.904024
0.857353,0.867983,0.89456,0.903934
0.856839,0.867896,0.894471,0.903843
0.856325,0.867808,0.894381,0.903753
0.855811,0.86772,0.894292,0.903662
0.855297,0.867633,0.894202,0.903572
0.854784,0.867545,0.894113,0.903482
0.854271,0.867458,0.894023,0.903391
0.853759,0.86737,0.893934,0.903301
0.853247,0.867283,0.893845,0.903211
0.852735,0.867195,0.893755,0.90312
0.852223,0.867108,0.893666,0.90303
0.851712,0.86702,0.893577,0.90294
0.851627,0.866933,0.893487,0.902849
0.851542,0.866845,0.9202,0.902759
0.851031,0.866758,0.920108,0.902669
0.85052,0.86667,0.920016,0.902579
0.85001,0.866583,0.919924,0.902488
0.8495,0.866495,0.919832,0.902398
0.84899,0.866408,0.91974,0.902308
0.848481,0.86632,0.919648,0.902218
0.847972,0.866233,0.919556,0.902127
0.847463,0.866146,0.919464,0.902037
0.846955,0.866058,0.919372,0.901947
0.846447,0.865971,0.91928,0.901857
0.845939,0.865883,0.919188,0.901767
0.845431,0.865796,0.919096,0.901676
0.844924,0.865709,0.919004,0.901586
0.844417,0.865621,0.918912,0.901496
0.84391,0.865534,0.91882,0.901406
0.843404,0.865446,0.918729,0.901316
0.842898,0.865359,0.918637,0.901226
0.842392,0.865272,0.918545,0.901136
0.841887,0.865184,0.918453,0.901045
0.841382,0.865097,0.918361,0.900955
0.840877,0.86501,0.918269,0.900865
0.840373,0.864923,0.918177,0.900775
0.839868,0.864835,0.918086,0.900685
0.839365,0.864748,0.917994,0.900595
0.838861,0.864661,0.917902,0.900505
0.838358,0.864573,0.91781,0.900415
0.837855,0.864486,0.917718,0.900325
0.837352,0.864399,0.917627,0.900235
0.83685,0.864312,0.917535,0.900145
0.836348,0.864224,0.917443,0.900055
0.835846,0.864137,0.917351,0.899965
0.835344,0.86405,0.91726,0.899875
0.834843,0.863963,0.917168,0.899785
0.834342,0.863876,0.917076,0.899695
0.833842,0.863788,0.916985,0.899605
0.833342,0.863701,0.916893,0.899515
0.833258,0.863614,0.916801,0.899425
0.833175,0.863527,0.944211,0.899335
0.832675,0.86344,0.944116,0.899245
0.832176,0.863353,0.944022,0.899155
0.831676,0.863266,0.943928,0.899065
0.831177,0.863178,0.943833,0.898975
0.830679,0.863091,0.943739,0.898885
0.83018,0.863004,0.943644,0.898796
0.829682,0.862917,0.94355,0.898706
0.829184,0.86283,0.943456,0.898616
0.828687,0.862743,0.943361,0.898526
0.82819,0.862656,0.943267,0.898436
0.827693,0.862569,0.943173,0.898346
0.827196,0.862482,0.943078,0.898256
0.8267,0.862395,0.942984,0.898167
0.826204,0.862308,0.94289,0.898077
0.825708,0.862221,0.942795,0.897987
0.825213,0.862134,0.942701,0.897897
0.824718,0.862047,0.942607,0.897807
0.824223,0.86196,0.942513,0.897718
0.823729,0.861873,0.942418,0.897628
0.823646,0.861786,0.942324,0.897538
0.823564,0.861699,0.970497,0.897448
0.82307,0.861612,0.9704,0.897359
0.822576,0.861525,0.970303,0.897269
0.822082,0.861438,0.970206,0.897179
0.821589,0.861351,0.970109,0.897089
0.821096,0.861264,0.970012,0.897
0.820604,0.861177,0.969915,0.89691
0.820111,0.86109,0.969818,0.89682
0.819619,0.861003,0.969721,0.896731
0.819128,0.860916,0.969624,0.896641
0.818636,0.860829,0.969527,0.896551
0.818145,0.860743,0.96943,0.896462
0.817654,0.860656,0.969333,0.896372
0.817164,0.860569,0.969236,0.896282
0.816673,0.860482,0.969139,0.896193
0.816183,0.860395,0.969042,0.896103
0.815694,0.860308,0.968945,0.896013
0.815204,0.860222,0.968848,0.895924
0.814715,0.860135,0.968751,0.895834
0.814227,0.860048,0.968655,0.895745
0.813738,0.859961,0.968558,0.895655
0.81325,0.859874,0.968461,0.895566
0.812762,0.859788,0.968364,0.895476
0.812274,0.859701,0.968267,0.895386
0.811787,0.859614,0.96817,0.895297
0.8113,0.859527,0.968073,0.895207
0.811219,0.85944,0.967977,0.895118
0.811138,0.859354,0.996916,0.895028
0.810651,0.859267,0.996817,0.894939
0.810165,0.85918,0.996717,0.894849
0.809679,0.859094,0.996617,0.89476
0.809193,0.859007,0.996518,0.89467
0.808707,0.85892,0.996418,0.894581
0.808222,0.858834,0.996318,0.894491
0.807737,0.858747,0.996219,0.894402
0.807253,0.85866,0.996119,0.894313
0.806768,0.858574,0.996019,0.894223
0.806284,0.858487,0.99592,0.894134
0.805801,0.8584,0.99582,0.894044
0.805317,0.858314,0.995721,0.893955
0.804834,0.858227,0.995621,0.893865
0.804351,0.85814,0.995521,0.893776
0.803869,0.858054,0.995422,0.893687
0.803386,0.857967,0.995322,0.893597
0.802904,0.857881,0.995223,0.893508
0.802423,0.857794,0.995123,0.893419
0.801941,0.857707,0.995024,0.893329
0.80146,0.857621,0.994924,0.89324
0.800979,0.857534,0.994825,0.893151
0.800499,0.857448,0.994725,0.893061
0.800019,0.857361,0.994626,0.892972
0.799539,0.857275,0.994526,0.892883
0.799059,0.857188,0.994427,0.892793
0.798579,0.857102,0.994328,0.892704
0.7985,0.857015,0.994228,0.892615
0.79842,0.856929,1,0.892526
0.797941,0.856842,0.9999,0.892436
0.797462,0.856756,0.9998,0.892347
0.796984,0.856669,0.9997,0.892258
0.796505,0.856583,0.9996,0.892169
0.796028,0.856496,0.9995,0.892079
0.79555,0.85641,0.9994,0.89199
0.795073,0.856324,0.9993,0.891901
0.794596,0.856237,0.9992,0.891812
0.794119,0.856151,0.9991,0.891723
0.793643,0.856064,0.999,0.891633
0.793166,0.855978,0.998901,0.891544
0.792691,0.855891,0.998801,0.891455
0.792611,0.855805,0.998701,0.891366
0.792532,0.855719,1,0.891277
0.792057,0.855632,0.9999,0.891188
0.791581,0.855546,0.9998,0.891099
0.791106,0.85546,0.9997,0.89101
0.790632,0.855373,0.9996,0.89092
0.790157,0.855287,0.9995,0.890831
0.789683,0.855201,0.9994,0.890742
0.78921,0.855114,0.9993,0.890653
0.788736,0.855028,0.9992,0.890564
0.788263,0.854942,0.9991,0.890475
0.78779,0.854856,0.999,0.890386
0.787317,0.854769,0.998901,0.890297
0.786845,0.854683,0.998801,0.890208
0.786373,0.854597,0.998701,0.890119
0.785901,0.85451,0.998601,0.89003
0.78543,0.854424,0.998501,0.889941
0.784958,0.854338,0.998401,0.889852
0.784488,0.854252,0.998301,0.889763
0.784017,0.854166,0.998202,0.889674
0.783547,0.854079,0.998102,0.889585
0.783076,0.853993,0.998002,0.889496
0.782607,0.853907,0.997902,0.889407
0.782137,0.853821,0.997802,0.889318
0.781668,0.853735,0.997703,0.889229
0.781199,0.853648,0.997603,0.88914
0.78073,0.853562,0.997503,0.889051
0.780262,0.853476,0.997403,0.888962
0.779794,0.85339,0.997304,0.888874
0.779326,0.853304,0.997204,0.888785
0.778858,0.853218,0.997104,0.888696
0.778391,0.853132,0.997004,0.888607
0.777924,0.853046,0.996905,0.888518
0.777457,0.85296,0.996805,0.888429
0.776991,0.852873,0.996705,0.88834
0.776913,0.852787,0.996606,0.888252
0.776835,0.852701,1,0.888163
0.776369,0.852615,0.9999,0.888074
0.775904,0.852529,0.9998,0.887985
0.775438,0.852443,0.9997,0.887896
0.774973,0.852357,0.9996,0.887808
0.774508,0.852271,0.9995,0.887719
0.774043,0.852185,0.9994,0.88763
0.773579,0.852099,0.9993,0.887541
0.773115,0.852013,0.9992,0.887452
0.772651,0.851927,0.9991,0.887364
0.772187,0.851841,0.999,0.887275
0.771724,0.851755,0.998901,0.887186
0.771261,0.851669,0.998801,0.887098
0.770798,0.851583,0.998701,0.887009
0.770336,0.851497,0.998601,0.88692
0.770259,0.851411,0.998501,0.886831
0.770182,0.851325,1,0.886743
0.76972,0.85124,0.9999,0.886654
0.769258,0.851154,0.9998,0.886565
0.768797,0.851068,0.9997,0.886477
0.768335,0.850982,0.9996,0.886388
0.767874,0.850896,0.9995,0.886299
0.767414,0.85081,0.9994,0.886211
0.766953,0.850724,0.9993,0.886122
0.766493,0.850638,0.9992,0.886034
0.766033,0.850553,0.9991,0.885945
0.765574,0.850467,0.999,0.885856
0.765114,0.850381,0.998901,0.885768
0.764655,0.850295,0.998801,0.885679
0.764197,0.850209,0.998701,0.885591
0.763738,0.850123,0.998601,0.885502
0.76328,0.850038,0.998501,0.885414
0.762822,0.849952,0.998401,0.885325
0.762364,0.849866,0.998301,0.885236
0.761907,0.84978,0.998202,0.885148
0.76145,0.849695,0.998102,0.885059
0.760993,0.849609,0.998002,0.884971
0.760536,0.849523,0.997902,0.884882
0.76008,0.849437,0.997802,0.884794
0.759624,0.849352,0.997703,0.884705
0.759168,0.849266,0.997603,0.884617
0.759093,0.84918,0.997503,0.884529
0.759017,0.849094,1,0.88444
0.758561,0.849009,0.9999,0.884352
0.758106,0.848923,0.9998,0.884263
0.757651,0.848837,0.9997,0.884175
0.757197,0.848752,0.9996,0.884086
0.756742,0.848666,0.9995,0.883998
0.756288,0.84858,0.9994,0.88391
0.755835,0.848495,0.9993,0.883821
0.755381,0.848409,0.9992,0.883733
0.754928,0.848324,0.9991,0.883644
0.754475,0.848238,0.999,0.883556
0.754023,0.848152,0.998901,0.883468
0.75357,0.848067,0.998801,0.883379
0.753118,0.847981,0.998701,0.883291
0.752666,0.847896,0.998601,0.883203
0.752215,0.84781,0.998501,0.883114
0.751763,0.847724,0.998401,0.883026
0.751312,0.847639,0.998301,0.882938
0.750862,0.847553,0.998202,0.882849
0.750411,0.847468,0.998102,0.882761
0.749961,0.847382,0.998002,0.882673
0.749511,0.847297,0.997902,0.882585
0.749061,0.847211,0.997802,0.882496
0.748612,0.847126,0.997703,0.882408
0.748163,0.84704,0.997603,0.88232
0.747714,0.846955,0.997503,0.882232
0.747265,0.846869,0.997403,0.882143
0.746817,0.846784,0.997304,0.882055
0.746369,0.846698,0.997204,0.881967
0.745921,0.846613,0.997104,0.881879
0.745474,0.846527,0.997004,0.881791
0.745026,0.846442,0.996905,0.881702
0.744579,0.846357,0.996805,0.881614
0.744133,0.846271,0.996705,0.881526
0.743686,0.846186,0.996606,0.881438
0.74324,0.8461,0.996506,0.88135
0.742794,0.846015,0.996406,0.881262
0.742349,0.84593,0.996307,0.881174
0.741903,0.845844,0.996207,0.881085
0.741458,0.845759,0.996107,0.880997
0.741013,0.845673,0.996008,0.880909
0.740569,0.845588,0.995908,0.880821
0.740124,0.845503,0.995809,0.880733
0.73968,0.845417,0.995709,0.880645
0.739237,0.845332,0.995609,0.880557
0.738793,0.845247,0.99551,0.880469
0.73835,0.845162,0.99541,0.880381
0.737907,0.845076,0.995311,0.880293
0.737464,0.844991,0.995211,0.880205
0.737022,0.844906,0.995112,0.880117
0.736948,0.84482,0.995012,0.880029
0.736874,0.844735,1,0.879941
0.736432,0.84465,0.9999,0.879853
0.73599,0.844565,0.9998,0.879765
0.735549,0.844479,0.9997,0.879677
0.735108,0.844394,0.9996,0.879589
0.734666,0.844309,0.9995,0.879501
0.734226,0.844224,0.9994,0.879413
0.733785,0.844139,0.9993,0.879325
0.733345,0.844053,0.9992,0.879237
0.732905,0.843968,0.9991,0.879149
0.732465,0.843883,0.999,0.879061
0.732026,0.843798,0.998901,0.878973
0.731587,0.843713,0.998801,0.878885
0.731148,0.843628,0.998701,0.878797
0.730709,0.843542,0.998601,0.87871
0.730636,0.843457,0.998501,0.878622
0.730563,0.843372,1,0.878534
0.730125,0.843287,0.9999,0.878446
0.729687,0.843202,0.9998,0.878358
0.729249,0.843117,0.9997,0.87827
0.728811,0.843032,0.9996,0.878182
0.728374,0.842947,0.9995,0.878095
0.727937,0.842862,0.9994,0.878007
0.7275,0.842777,0.9993,0.877919
0.727064,0.842691,0.9992,0.877831
0.726628,0.842606,0.9991,0.877743
0.726192,0.842521,0.999,0.877656
0.725756,0.842436,0.998901,0.877568
0.725321,0.842351,0.998801,0.87748
0.724886,0.842266,0.998701,0.877392
0.724451,0.842181,0.998601,0.877305
0.724016,0.842096,0.998501,0.877217
0.723582,0.842011,0.998401,0.877129
0.723148,0.841926,0.998301,0.877042
0.722714,0.841841,0.998202,0.876954
0.72228,0.841756,0.998102,0.876866
0.721847,0.841672,0.998002,0.876778
0.721414,0.841587,0.997902,0.876691
0.720981,0.841502,0.997802,0.876603
0.720548,0.841417,0.997703,0.876515
0.720116,0.841332,0.997603,0.876428
0.719684,0.841247,0.997503,0.87634
0.719252,0.841162,0.997403,0.876253
0.718821,0.841077,0.997304,0.876165
0.718749,0.840992,0.997204,0.876077
0.718677,0.840907,1,0.87599
0.718246,0.840822,0.9999,0.875902
0.717815,0.840738,0.9998,0.875814
0.717384,0.840653,0.9997,0.875727
0.716954,0.840568,0.9996,0.875639
0.716524,0.840483,0.9995,0.875552
0.716094,0.840398,0.9994,0.875464
0.715664,0.840313,0.9993,0.875377
0.715235,0.840229,0.9992,0.875289
0.714806,0.840144,0.9991,0.875202
0.714377,0.840059,0.999,0.875114
0.713948,0.839974,0.998901,0.875027
0.71352,0.83989,0.998801,0.874939
0.713092,0.839805,0.998701,0.874852
0.712664,0.83972,0.998601,0.874764
0.712236,0.839635,0.998501,0.874677
0.711809,0.839551,0.998401,0.874589
0.711382,0.839466,0.998301,0.874502
0.710955,0.839381,0.998202,0.874414
0.710529,0.839296,0.998102,0.874327
0.710102,0.839212,0.998002,0.874239
0.709676,0.839127,0.997902,0.874152
0.709251,0.839042,0.997802,0.874065
0.708825,0.838958,0.997703,0.873977
0.7084,0.838873,0.997603,0.87389
0.707975,0.838788,0.997503,0.873802
0.70755,0.838704,0.997403,0.873715
0.707126,0.838619,0.997304,0.873628
0.706701,0.838534,0.997204,0.87354
0.706277,0.83845,0.997104,0.873453
0.706207,0.838365,0.997004,0.873365
0.706136,0.83828,1,0.873278
0.705713,0.838196,0.9999,0.873191
0.705289,0.838111,0.9998,0.873104
0.704866,0.838027,0.9997,0.873016
0.704443,0.837942,0.9996,0.872929
0.704021,0.837858,0.9995,0.872842
0.703598,0.837773,0.9994,0.872754
0.703176,0.837688,0.9993,0.872667
0.702754,0.837604,0.9992,0.87258
0.702333,0.837519,0.9991,0.872493
0.701911,0.837435,0.999,0.872405
0.70149,0.83735,0.998901,0.872318
0.701069,0.837266,0.998801,0.872231
0.700649,0.837181,0.998701,0.872144
0.700228,0.837097,0.998601,0.872056
0.699808,0.837012,0.998501,0.871969
0.699388,0.836928,0.998401,0.871882
0.698969,0.836843,0.998301,0.871795
0.698549,0.836759,0.998202,0.871708
0.69813,0.836675,0.998102,0.87162
0.697711,0.83659,0.998002,0.871533
0.697293,0.836506,0.997902,0.871446
0.696874,0.836421,0.997802,0.871359
0.696456,0.836337,0.997703,0.871272
0.696039,0.836252,0.997603,0.871185
0.695621,0.836168,0.997503,0.871098
0.695204,0.836084,0.997403,0.87101
0.694787,0.835999,0.997304,0.870923
0.69437,0.835915,0.997204,0.870836
0.693953,0.835831,0.997104,0.870749
0.693537,0.835746,0.997004,0.870662
0.693121,0.835662,0.996905,0.870575
0.692705,0.835577,0.996805,0.870488
0.692289,0.835493,0.996705,0.870401
0.691874,0.835409,0.996606,0.870314
0.691459,0.835325,0.996506,0.870227
0.691044,0.83524,0.996406,0.87014
0.690629,0.835156,0.996307,0.870053
0.690215,0.835072,0.996207,0.869966
0.689801,0.834987,0.996107,0.869879
0.689387,0.834903,0.996008,0.869792
0.688973,0.834819,0.995908,0.869705
0.68856,0.834735,0.995809,0.869618
0.688147,0.83465,0.995709,0.869531
0.687734,0.834566,0.995609,0.869444
0.687665,0.834482,0.99551,0.869357
0.687597,0.834398,1,0.86927
0.687184,0.834313,0.9999,0.869183
0.686772,0.834229,0.9998,0.869096
0.68636,0.834145,0.9997,0.869009
0.685948,0.834061,0.9996,0.868922
0.685537,0.833977,0.9995,0.868836
0.685125,0.833893,0.9994,0.868749
0.684714,0.833808,0.9993,0.868662
0.684303,0.833724,0.9992,0.868575
0.683893,0.83364,0.9991,0.868488
0.683483,0.833556,0.999,0.868401
0.683072,0.833472,0.998901,0.868314
0.682663,0.833388,0.998801,0.868228
0.682253,0.833304,0.998701,0.868141
0.681844,0.83322,0.998601,0.868054
0.681435,0.833135,0.998501,0.867967
0.681026,0.833051,0.998401,0.86788
0.680617,0.832967,0.998301,0.867794
0.680209,0.832883,0.998202,0.867707
0.679801,0.832799,0.998102,0.86762
0.679393,0.832715,0.998002,0.867533
0.678985,0.832631,0.997902,0.867446
0.678578,0.832547,0.997802,0.86736
0.678171,0.832463,0.997703,0.867273
0.677764,0.832379,0.997603,0.867186
0.677357,0.832295,0.997503,0.8671
0.676951,0.832211,0.997403,0.867013
0.676545,0.832127,0.997304,0.866926
0.676139,0.832043,0.997204,0.866839
0.675733,0.831959,0.997104,0.866753
0.675328,0.831875,0.997004,0.866666
0.674923,0.831791,0.996905,0.866579
0.674518,0.831707,0.996805,0.866493
