energy,productivity,fun,hunger
0.778147,0.841704,0.801265,0.687624
0.778069,0.841604,0.82522,0.687555
0.777602,0.841503,0.825137,0.687487
0.777135,0.841402,0.825055,0.687418
0.776669,0.841301,0.824972,0.687349
0.776203,0.8412,0.82489,0.68728
0.775738,0.841099,0.824807,0.687212
0.775272,0.840999,0.824725,0.687143
0.774807,0.840898,0.824642,0.687074
0.774342,0.840797,0.82456,0.687006
0.773878,0.840696,0.824478,0.686937
0.773413,0.840596,0.824395,0.686868
0.772949,0.840495,0.824313,0.6868
0.772486,0.840394,0.82423,0.686731
0.772022,0.840294,0.824148,0.686662
0.771559,0.840193,0.824065,0.686594
0.771096,0.840092,0.823983,0.686525
0.770633,0.839992,0.823901,0.686456
0.770171,0.839891,0.823818,0.686388
0.769709,0.83979,0.823736,0.686319
0.769247,0.83969,0.823653,0.68625
0.768786,0.839589,0.823571,0.686182
0.768324,0.839489,0.823489,0.686113
0.767864,0.839388,0.823406,0.686044
0.767403,0.839287,0.823324,0.685976
0.766942,0.839187,0.823242,0.685907
0.766482,0.839086,0.823159,0.685839
0.766022,0.838986,0.823077,0.68577
0.765563,0.838885,0.822995,0.685701
0.765104,0.838785,0.822912,0.685633
0.764645,0.838684,0.82283,0.685564
0.764186,0.838584,0.822748,0.685496
0.763727,0.838483,0.822666,0.685427
0.763269,0.838383,0.822583,0.685359
0.762811,0.838282,0.822501,0.68529
0.762354,0.838182,0.822419,0.685222
0.761896,0.838081,0.822337,0.685153
0.761439,0.837981,0.822254,0.685085
0.760982,0.837881,0.822172,0.685016
0.760526,0.83778,0.82209,0.684948
0.760069,0.83768,0.822008,0.684879
0.759613,0.83758,0.821925,0.684811
0.759158,0.837479,0.821843,0.684742
0.758702,0.837379,0.821761,0.684674
0.758247,0.837279,0.821679,0.684605
0.757792,0.837178,0.821597,0.684537
0.757338,0.837078,0.821515,0.684468
0.756883,0.836978,0.821432,0.6844
0.756429,0.836877,0.82135,0.684331
0.755975,0.836777,0.821268,0.684263
0.755522,0.836677,0.821186,0.684195
0.755068,0.836577,0.821104,0.684126
0.754615,0.836476,0.821022,0.684058
0.754163,0.836376,0.82094,0.683989
0.75371,0.836276,0.820858,0.683921
0.753258,0.836176,0.820776,0.683852
0.752806,0.836075,0.820693,0.683784
0.752354,0.835975,0.820611,0.683716
0.752279,0.835875,0.820529,0.683647
0.752204,0.835775,0.845061,0.683579
0.751753,0.835675,0.844976,0.683511
0.751302,0.835575,0.844892,0.683442
0.750851,0.835475,0.844807,0.683374
0.750401,0.835375,0.844723,0.683306
0.74995,0.835274,0.844638,0.683237
0.7495,0.835174,0.844554,0.683169
0.749051,0.835074,0.844469,0.683101
0.748601,0.834974,0.844385,0.683032
0.748152,0.834874,0.8443,0.682964
0.748077,0.834774,0.844216,0.682896
0.748003,0.834674,0.869456,0.682827
0.747554,0.834574,0.869369,0.682759
0.747105,0.834474,0.869282,0.682691
0.746657,0.834374,0.869195,0.682623
0.746209,0.834274,0.869108,0.682554
0.745761,0.834174,0.869021,0.682486
0.745314,0.834074,0.868934,0.682418
0.744867,0.833974,0.868847,0.68235
0.74442,0.833874,0.86876,0.682281
0.743973,0.833775,0.868673,0.682213
0.743527,0.833675,0.868586,0.682145
0.743081,0.833575,0.8685,0.682077
0.742635,0.833475,0.868413,0.682008
0.74219,0.833375,0.868326,0.68194
0.741744,0.833275,0.868239,0.681872
0.741299,0.833175,0.868152,0.681804
0.740855,0.833076,0.868065,0.681736
0.74041,0.832976,0.867979,0.681668
0.739966,0.832876,0.867892,0.681599
0.739522,0.832776,0.867805,0.681531
0.739078,0.832676,0.867718,0.681463
0.738635,0.832577,0.867632,0.681395
0.738192,0.832477,0.867545,0.681327
0.737749,0.832377,0.867458,0.681259
0.737306,0.832277,0.867371,0.681191
0.736864,0.832178,0.867285,0.681122
0.736422,0.832078,0.867198,0.681054
0.73598,0.831978,0.867111,0.680986
0.735538,0.831879,0.867024,0.680918
0.735097,0.831779,0.866938,0.68085
0.735024,0.831679,0.866851,0.680782
0.73495,0.83158,0.892767,0.680714
0.734509,0.83148,0.892678,0.680646
0.734069,0.83138,0.892589,0.680578
0.733628,0.831281,0.892499,0.68051
0.733188,0.831181,0.89241,0.680442
0.732748,0.831082,0.892321,0.680374
0.732308,0.830982,0.892232,0.680306
0.731869,0.830882,0.892142,0.680237
0.73143,0.830783,0.892053,0.680169
0.730991,0.830683,0.891964,0.680101
0.730553,0.830584,0.891875,0.680033
0.730114,0.830484,0.891786,0.679965
0.729676,0.830385,0.891696,0.679897
0.729239,0.830285,0.891607,0.679829
0.728801,0.830186,0.891518,0.679761
0.728364,0.830086,0.891429,0.679693
0.727927,0.829987,0.89134,0.679626
0.72749,0.829887,0.891251,0.679558
0.727054,0.829788,0.891162,0.67949
0.726617,0.829689,0.891072,0.679422
0.726182,0.829589,0.890983,0.679354
0.725746,0.82949,0.890894,0.679286
0.72531,0.82939,0.890805,0.679218
0.724875,0.829291,0.890716,0.67915
0.72444,0.829192,0.890627,0.679082
0.724006,0.829092,0.890538,0.679014
0.723571,0.828993,0.890449,0.678946
0.723137,0.828894,0.89036,0.678878
0.722703,0.828794,0.890271,0.67881
0.72227,0.828695,0.890182,0.678743
0.721837,0.828596,0.890093,0.678675
0.721403,0.828496,0.890004,0.678607
0.720971,0.828397,0.889915,0.678539
0.720538,0.828298,0.889826,0.678471
0.720106,0.828199,0.889737,0.678403
0.719674,0.828099,0.889648,0.678335
0.719242,0.828,0.889559,0.678268
0.718811,0.827901,0.88947,0.6782
0.718379,0.827802,0.889381,0.678132
0.717948,0.827703,0.889292,0.678064
0.717518,0.827604,0.889203,0.677996
0.717087,0.827504,0.889114,0.677928
0.717015,0.827405,0.889025,0.677861
0.716944,0.827306,0.915604,0.677793
0.716514,0.827207,0.915513,0.677725
0.716084,0.827108,0.915421,0.677657
0.715654,0.827009,0.91533,0.67759
0.715225,0.82691,0.915238,0.677522
0.714796,0.826811,0.915147,0.677454
0.714367,0.826712,0.915055,0.677386
0.713938,0.826612,0.914964,0.677319
0.71351,0.826513,0.914872,0.677251
0.713082,0.826414,0.914781,0.677183
0.712654,0.826315,0.914689,0.677115
0.712226,0.826216,0.914598,0.677048
0.711799,0.826117,0.914506,0.67698
0.711372,0.826018,0.914415,0.676912
0.710945,0.825919,0.914323,0.676845
0.710519,0.82582,0.914232,0.676777
0.710092,0.825722,0.914141,0.676709
0.709666,0.825623,0.914049,0.676642
0.709241,0.825524,0.913958,0.676574
0.708815,0.825425,0.913866,0.676506
0.70839,0.825326,0.913775,0.676439
0.708319,0.825227,0.913684,0.676371
0.708248,0.825128,0.941,0.676303
0.707823,0.825029,0.940906,0.676236
0.707399,0.82493,0.940812,0.676168
0.706974,0.824832,0.940718,0.6761
0.70655,0.824733,0.940624,0.676033
0.706126,0.824634,0.94053,0.675965
0.705703,0.824535,0.940436,0.675898
0.705279,0.824436,0.940341,0.67583
0.704856,0.824338,0.940247,0.675762
0.704433,0.824239,0.940153,0.675695
0.704011,0.82414,0.940059,0.675627
0.703588,0.824041,0.939965,0.67556
0.703166,0.823943,0.939871,0.675492
0.702744,0.823844,0.939777,0.675425
0.702323,0.823745,0.939683,0.675357
0.701901,0.823646,0.939589,0.67529
0.70148,0.823548,0.939496,0.675222
0.701059,0.823449,0.939402,0.675155
0.700639,0.82335,0.939308,0.675087
0.700218,0.823252,0.939214,0.67502
0.699798,0.823153,0.93912,0.674952
0.699378,0.823055,0.939026,0.674885
0.698959,0.822956,0.938932,0.674817
0.698539,0.822857,0.938838,0.67475
0.69812,0.822759,0.938744,0.674682
0.698051,0.82266,0.93865,0.674615
0.697981,0.822562,0.966713,0.674547
0.697562,0.822463,0.966616,0.67448
0.697144,0.822364,0.96652,0.674412
0.696725,0.822266,0.966423,0.674345
0.696307,0.822167,0.966327,0.674277
0.69589,0.822069,0.96623,0.67421
0.695472,0.82197,0.966133,0.674143
0.695055,0.821872,0.966037,0.674075
0.694638,0.821773,0.96594,0.674008
0.694221,0.821675,0.965843,0.67394
0.693805,0.821577,0.965747,0.673873
0.693388,0.821478,0.96565,0.673806
0.692972,0.82138,0.965554,0.673738
0.692557,0.821281,0.965457,0.673671
0.692141,0.821183,0.965361,0.673603
0.691726,0.821085,0.965264,0.673536
0.691311,0.820986,0.965168,0.673469
0.690896,0.820888,0.965071,0.673401
0.690482,0.820789,0.964975,0.673334
0.690067,0.820691,0.964878,0.673267
0.689653,0.820593,0.964782,0.673199
0.68924,0.820494,0.964685,0.673132
0.688826,0.820396,0.964589,0.673065
0.688413,0.820298,0.964492,0.672997
0.688,0.8202,0.964396,0.67293
0.687587,0.820101,0.964299,0.672863
0.687174,0.820003,0.964203,0.672796
0.686762,0.819905,0.964106,0.672728
0.68635,0.819807,0.96401,0.672661
0.685938,0.819708,0.963914,0.672594
0.685527,0.81961,0.963817,0.672526
0.685116,0.819512,0.963721,0.672459
0.684705,0.819414,0.963624,0.672392
0.684294,0.819316,0.963528,0.672325
0.683883,0.819217,0.963432,0.672257
0.683473,0.819119,0.963335,0.67219
0.683063,0.819021,0.963239,0.672123
0.682995,0.818923,0.963143,0.672056
0.682926,0.818825,0.991938,0.671989
0.682517,0.818727,0.991839,0.671921
0.682107,0.818629,0.991739,0.671854
0.681698,0.818531,0.99164,0.671787
0.681289,0.818432,0.991541,0.67172
0.68088,0.818334,0.991442,0.671653
0.680472,0.818236,0.991343,0.671586
0.680063,0.818138,0.991244,0.671518
0.679655,0.81804,0.991145,0.671451
0.679248,0.817942,0.991045,0.671384
0.67884,0.817844,0.990946,0.671317
0.678433,0.817746,0.990847,0.67125
0.678026,0.817648,0.990748,0.671183
0.677619,0.81755,0.990649,0.671116
0.677212,0.817452,0.99055,0.671048
0.676806,0.817354,0.990451,0.670981
0.6764,0.817257,0.990352,0.670914
0.675994,0.817159,0.990253,0.670847
0.675589,0.817061,0.990154,0.67078
0.675183,0.816963,0.990055,0.670713
0.674778,0.816865,0.989956,0.670646
0.674374,0.816767,0.989857,0.670579
0.673969,0.816669,0.989758,0.670512
0.673565,0.816571,0.989659,0.670445
0.67316,0.816474,0.98956,0.670378
0.672757,0.816376,0.989461,0.670311
0.672353,0.816278,0.989362,0.670244
0.67195,0.81618,0.989263,0.670177
0.671546,0.816082,0.989164,0.67011
0.671144,0.815985,0.989065,0.670043
0.670741,0.815887,0.988966,0.669976
0.670339,0.815789,0.988867,0.669909
0.669936,0.815691,0.988769,0.669842
0.669534,0.815594,0.98867,0.669775
0.669133,0.815496,0.988571,0.669708
0.668731,0.815398,0.988472,0.669641
0.66833,0.8153,0.988373,0.669574
0.667929,0.815203,0.988274,0.669507
0.667528,0.815105,0.988175,0.66944
0.667128,0.815007,0.988077,0.669373
0.666728,0.81491,0.987978,0.669306
0.666328,0.814812,0.987879,0.669239
0.665928,0.814714,0.98778,0.669172
0.665528,0.814617,0.987681,0.669105
0.665129,0.814519,0.987583,0.669038
0.665063,0.814422,0.987484,0.668971
0.664996,0.814324,1,0.668904
0.664597,0.814227,0.9999,0.668838
0.664198,0.814129,0.9998,0.668771
0.6638,0.814031,0.9997,0.668704
0.663402,0.813934,0.9996,0.668637
0.663004,0.813836,0.9995,0.66857
0.662606,0.813739,0.9994,0.668503
0.662208,0.813641,0.9993,0.668436
0.661811,0.813544,0.9992,0.668369
0.661414,0.813446,0.9991,0.668303
0.661017,0.813349,0.999,0.668236
0.660621,0.813252,0.998901,0.668169
0.660224,0.813154,0.998801,0.668102
0.659828,0.813057,0.998701,0.668035
0.659432,0.812959,0.998601,0.667969
0.659037,0.812862,0.998501,0.667902
0.658641,0.812764,0.998401,0.667835
0.658246,0.812667,0.998301,0.667768
0.657851,0.81257,0.998202,0.667701
0.657457,0.812472,0.998102,0.667635
0.657062,0.812375,0.998002,0.667568
0.656668,0.812278,0.997902,0.667501
0.656274,0.81218,0.997802,0.667434
0.65588,0.812083,0.997703,0.667368
0.655487,0.811986,0.997603,0.667301
0.655093,0.811888,0.997503,0.667234
0.6547,0.811791,0.997403,0.667167
0.654308,0.811694,0.997304,0.667101
0.653915,0.811597,0.997204,0.667034
0.653523,0.811499,0.997104,0.666967
0.653131,0.811402,0.997004,0.666901
0.652739,0.811305,0.996905,0.666834
0.652347,0.811208,0.996805,0.666767
0.651956,0.811111,0.996705,0.666701
0.651565,0.811013,0.996606,0.666634
0.6515,0.810916,0.996506,0.666567
0.651434,0.810819,1,0.666501
0.651044,0.810722,0.9999,0.666434
0.650653,0.810625,0.9998,0.666367
0.650263,0.810528,0.9997,0.666301
0.649872,0.810431,0.9996,0.666234
0.649483,0.810333,0.9995,0.666167
0.649093,0.810236,0.9994,0.666101
0.648704,0.810139,0.9993,0.666034
0.648314,0.810042,0.9992,0.665968
0.647925,0.809945,0.9991,0.665901
0.647537,0.809848,0.999,0.665834
0.647148,0.809751,0.998901,0.665768
0.64676,0.809654,0.998801,0.665701
0.646372,0.809557,0.998701,0.665635
0.645984,0.80946,0.998601,0.665568
0.645597,0.809363,0.998501,0.665501
0.645209,0.809266,0.998401,0.665435
0.644822,0.809169,0.998301,0.665368
0.644435,0.809072,0.998202,0.665302
0.644049,0.808975,0.998102,0.665235
0.643662,0.808878,0.998002,0.665169
0.643276,0.808781,0.997902,0.665102
0.64289,0.808685,0.997802,0.665036
0.642504,0.808588,0.997703,0.664969
0.642119,0.808491,0.997603,0.664903
0.642055,0.808394,0.997503,0.664836
0.641991,0.808297,1,0.66477
0.641605,0.8082,0.9999,0.664703
0.64122,0.808103,0.9998,0.664637
0.640836,0.808007,0.9997,0.66457
0.640451,0.80791,0.9996,0.664504
0.640067,0.807813,0.9995,0.664437
0.639683,0.807716,0.9994,0.664371
0.639299,0.807619,0.9993,0.664305
0.638916,0.807523,0.9992,0.664238
0.638532,0.807426,0.9991,0.664172
0.638149,0.807329,0.999,0.664105
0.637766,0.807232,0.998901,0.664039
0.637384,0.807136,0.998801,0.663973
0.637001,0.807039,0.998701,0.663906
0.636619,0.806942,0.998601,0.66384
0.636237,0.806846,0.998501,0.663773
0.635856,0.806749,0.998401,0.663707
0.635474,0.806652,0.998301,0.663641
0.635093,0.806556,0.998202,0.663574
0.634712,0.806459,0.998102,0.663508
0.634331,0.806362,0.998002,0.663442
0.63395,0.806266,0.997902,0.663375
0.63357,0.806169,0.997802,0.663309
0.63319,0.806073,0.997703,0.663243
0.63281,0.805976,0.997603,0.663176
0.63243,0.805879,0.997503,0.66311
0.632051,0.805783,0.997403,0.663044
0.631672,0.805686,0.997304,0.662977
0.631293,0.80559,0.997204,0.662911
0.630914,0.805493,0.997104,0.662845
0.630536,0.805397,0.997004,0.662778
0.630157,0.8053,0.996905,0.662712
0.630094,0.805204,0.996805,0.662646
0.630031,0.805107,1,0.66258
0.629653,0.805011,0.9999,0.662513
0.629276,0.804914,0.9998,0.662447
0.628898,0.804818,0.9997,0.662381
0.628521,0.804721,0.9996,0.662315
0.628144,0.804625,0.9995,0.662248
0.627767,0.804529,0.9994,0.662182
0.62739,0.804432,0.9993,0.662116
0.627014,0.804336,0.9992,0.66205
0.626638,0.80424,0.9991,0.661983
0.626262,0.804143,0.999,0.661917
0.625886,0.804047,0.998901,0.661851
0.62551,0.80395,0.998801,0.661785
0.625135,0.803854,0.998701,0.661719
0.62476,0.803758,0.998601,0.661653
0.624385,0.803662,0.998501,0.661586
0.624011,0.803565,0.998401,0.66152
0.623636,0.803469,0.998301,0.661454
0.623262,0.803373,0.998202,0.661388
0.622888,0.803276,0.998102,0.661322
0.622515,0.80318,0.998002,0.661256
0.622141,0.803084,0.997902,0.66119
0.621768,0.802988,0.997802,0.661123
0.621395,0.802892,0.997703,0.661057
0.621022,0.802795,0.997603,0.660991
0.620649,0.802699,0.997503,0.660925
0.620277,0.802603,0.997403,0.660859
0.619905,0.802507,0.997304,0.660793
0.619533,0.802411,0.997204,0.660727
0.619161,0.802315,0.997104,0.660661
0.61879,0.802218,0.997004,0.660595
0.618419,0.802122,0.996905,0.660529
0.618048,0.802026,0.996805,0.660463
0.617986,0.80193,0.996705,0.660397
0.617924,0.801834,1,0.660331
0.617553,0.801738,0.9999,0.660264
0.617183,0.801642,0.9998,0.660198
0.616812,0.801546,0.9997,0.660132
0.616442,0.80145,0.9996,0.660066
0.616073,0.801354,0.9995,0.66
0.615703,0.801258,0.9994,0.659934
0.615334,0.801162,0.9993,0.659868
0.614964,0.801066,0.9992,0.659802
0.614595,0.80097,0.9991,0.659736
0.614227,0.800874,0.999,0.65967
0.613858,0.800778,0.998901,0.659605
0.61349,0.800682,0.998801,0.659539
0.613122,0.800586,0.998701,0.659473
0.612754,0.80049,0.998601,0.659407
0.612386,0.800394,0.998501,0.659341
0.612019,0.800298,0.998401,0.659275
0.611652,0.800202,0.998301,0.659209
0.611285,0.800107,0.998202,0.659143
0.610918,0.800011,0.998102,0.659077
0.610552,0.799915,0.998002,0.659011
0.610185,0.799819,0.997902,0.658945
0.609819,0.799723,0.997802,0.658879
0.609758,0.799627,0.997703,0.658813
0.609697,0.799532,1,0.658748
0.609331,0.799436,0.9999,0.658682
0.608966,0.79934,0.9998,0.658616
0.608601,0.799244,0.9997,0.65855
0.608235,0.799148,0.9996,0.658484
0.60787,0.799053,0.9995,0.658418
0.607506,0.798957,0.9994,0.658352
0.607141,0.798861,0.9993,0.658287
0.606777,0.798765,0.9992,0.658221
0.606413,0.79867,0.9991,0.658155
0.606049,0.798574,0.999,0.658089
0.605686,0.798478,0.998901,0.658023
0.605322,0.798383,0.998801,0.657957
0.604959,0.798287,0.998701,0.657892
0.604596,0.798191,0.998601,0.657826
0.604233,0.798096,0.998501,0.65776
0.603871,0.798,0.998401,0.657694
0.603811,0.797905,0.998301,0.657629
0.60375,0.797809,1,0.657563
0.603388,0.797713,0.9999,0.657497
0.603026,0.797618,0.9998,0.657431
0.602664,0.797522,0.9997,0.657366
0.602303,0.797427,0.9996,0.6573
0.601941,0.797331,0.9995,0.657234
0.60158,0.797236,0.9994,0.657168
0.601219,0.79714,0.9993,0.657103
0.600858,0.797045,0.9992,0.657037
0.600498,0.796949,0.9991,0.656971
0.600138,0.796854,0.999,0.656906
0.599778,0.796758,0.998901,0.65684
0.599418,0.796663,0.998801,0.656774
0.599058,0.796567,0.998701,0.656708
0.598699,0.796472,0.998601,0.656643
0.59834,0.796376,0.998501,0.656577
0.597981,0.796281,0.998401,0.656511
0.597622,0.796186,0.998301,0.656446
0.597263,0.79609,0.998202,0.65638
0.596905,0.795995,0.998102,0.656315
0.596547,0.795899,0.998002,0.656249
0.596189,0.795804,0.997902,0.656183
0.595831,0.795709,0.997802,0.656118
0.595474,0.795613,0.997703,0.656052
0.595117,0.795518,0.997603,0.655986
0.59476,0.795423,0.997503,0.655921
0.594403,0.795327,0.997403,0.655855
0.594046,0.795232,0.997304,0.65579
0.59369,0.795137,0.997204,0.655724
0.593333,0.795042,0.997104,0.655659
0.592978,0.794946,0.997004,0.655593
0.592622,0.794851,0.996905,0.655527
0.592266,0.794756,0.996805,0.655462
0.591911,0.794661,0.996705,0.655396
0.591556,0.794565,0.996606,0.655331
0.591201,0.79447,0.996506,0.655265
0.590846,0.794375,0.996406,0.6552
0.590492,0.79428,0.996307,0.655134
0.590137,0.794185,0.996207,0.655069
0.589783,0.79409,0.996107,0.655003
0.58943,0.793994,0.996008,0.654938
0.589076,0.793899,0.995908,0.654872
0.588723,0.793804,0.995809,0.654807
0.588369,0.793709,0.995709,0.654741
0.588016,0.793614,0.995609,0.654676
0.587664,0.793519,0.99551,0.65461
0.587311,0.793424,0.99541,0.654545
0.586959,0.793329,0.995311,0.654479
0.586606,0.793234,0.995211,0.654414
0.586255,0.793139,0.995112,0.654348
0.585903,0.793044,0.995012,0.654283
0.585551,0.792949,0.994913,0.654218
0.5852,0.792854,0.994813,0.654152
0.584849,0.792759,0.994714,0.654087
0.584498,0.792664,0.994614,0.654021
0.584147,0.792569,0.994515,0.653956
0.583797,0.792474,0.994415,0.653891
0.583447,0.792379,0.994316,0.653825
0.583097,0.792284,0.994216,0.65376
0.582747,0.792189,0.994117,0.653694
0.582397,0.792094,0.994018,0.653629
0.582048,0.791999,0.993918,0.653564
0.581699,0.791904,0.993819,0.653498
0.58164,0.791809,0.993719,0.653433
0.581582,0.791714,1,0.653368
0.581233,0.79162,0.9999,0.653302
0.580885,0.791525,0.9998,0.653237
0.580536,0.79143,0.9997,0.653172
0.580188,0.791335,0.9996,0.653106
0.57984,0.79124,0.9995,0.653041
0.579492,0.791145,0.9994,0.652976
0.579144,0.791051,0.9993,0.65291
0.578797,0.790956,0.9992,0.652845
0.578449,0.790861,0.9991,0.65278
0.578102,0.790766,0.999,0.652715
0.577756,0.790672,0.998901,0.652649
0.577409,0.790577,0.998801,0.652584
0.577063,0.790482,0.998701,0.652519
0.576716,0.790387,0.998601,0.652454
0.57637,0.790293,0.998501,0.652388
0.576025,0.790198,0.998401,0.652323
0.575679,0.790103,0.998301,0.652258
0.575334,0.790009,0.998202,0.652193
0.574988,0.789914,0.998102,0.652127
0.574643,0.789819,0.998002,0.652062
0.574299,0.789725,0.997902,0.651997
0.573954,0.78963,0.997802,0.651932
0.57361,0.789536,0.997703,0.651867
0.573266,0.789441,0.997603,0.651801
0.572922,0.789346,0.997503,0.651736
0.572578,0.789252,0.997403,0.651671
0.572234,0.789157,0.997304,0.651606
0.571891,0.789063,0.997204,0.651541
0.571548,0.788968,0.997104,0.651476
0.571205,0.788874,0.997004,0.65141
0.570862,0.788779,0.996905,0.651345
0.57052,0.788685,0.996805,0.65128
0.570178,0.78859,0.996705,0.651215
0.569836,0.788496,0.996606,0.65115
0.569494,0.788401,0.996506,0.651085
0.569152,0.788307,0.996406,0.65102
0.568811,0.788212,0.996307,0.650955
0.568469,0.788118,0.996207,0.650889
0.568412,0.788023,0.996107,0.650824
0.568356,0.787929,1,0.650759
0.568015,0.787834,0.9999,0.650694
0.567674,0.78774,0.9998,0.650629
0.567333,0.787646,0.9997,0.650564
0.566993,0.787551,0.9996,0.650499
0.566653,0.787457,0.9995,0.650434
0.566313,0.787363,0.9994,0.650369
0.565973,0.787268,0.9993,0.650304
0.565633,0.787174,0.9992,0.650239
0.565294,0.78708,0.9991,0.650174
0.564955,0.786985,0.999,0.650109
0.564616,0.786891,0.998901,0.650044
0.564277,0.786797,0.998801,0.649979
0.564221,0.786703,0.998701,0.649914
0.564164,0.786608,1,0.649849
0.563826,0.786514,0.9999,0.649784
0.563488,0.78642,0.9998,0.649719
