energy,productivity,fun,hunger
0.767335,0.652896,0.641332,0.788975
0.767258,0.652835,0.660506,0.788896
0.766798,0.652774,0.680253,0.788817
0.766338,0.652714,0.70059,0.788738
0.765878,0.652653,0.721536,0.788659
0.765418,0.652593,0.721464,0.78858
0.764959,0.652532,0.721392,0.788501
0.7645,0.652472,0.721319,0.788423
0.764042,0.652411,0.721247,0.788344
0.763583,0.65235,0.721175,0.788265
0.763125,0.65229,0.721103,0.788186
0.762667,0.652229,0.721031,0.788107
0.76221,0.652169,0.720959,0.788028
0.761752,0.652108,0.720887,0.78795
0.761295,0.652048,0.720815,0.787871
0.760839,0.651987,0.720743,0.787792
0.760382,0.651927,0.72067,0.787713
0.759926,0.651866,0.720598,0.787635
0.75947,0.651806,0.720526,0.787556
0.759014,0.651745,0.720454,0.787477
0.758559,0.651685,0.720382,0.787398
0.758104,0.651624,0.72031,0.787319
0.757649,0.651564,0.720238,0.787241
0.757195,0.651503,0.720166,0.787162
0.75674,0.651443,0.720094,0.787083
0.756286,0.651382,0.720022,0.787005
0.755833,0.651322,0.71995,0.786926
0.755379,0.651261,0.719878,0.786847
0.754926,0.651201,0.719806,0.786769
0.754473,0.65114,0.719734,0.78669
0.75402,0.65108,0.719662,0.786611
0.753568,0.65102,0.71959,0.786533
0.753116,0.650959,0.719518,0.786454
0.752664,0.650899,0.719446,0.786375
0.752212,0.650838,0.719374,0.786297
0.751761,0.650778,0.719302,0.786218
0.75131,0.650718,0.719231,0.786139
0.750859,0.650657,0.719159,0.786061
0.750409,0.650597,0.719087,0.785982
0.749959,0.650536,0.719015,0.785904
0.749509,0.650476,0.718943,0.785825
0.749059,0.650416,0.718871,0.785746
0.74861,0.650355,0.718799,0.785668
0.748161,0.650295,0.718727,0.785589
0.747712,0.650234,0.718655,0.785511
0.747263,0.650174,0.718583,0.785432
0.746815,0.650114,0.718512,0.785354
0.74674,0.650053,0.71844,0.785275
0.746665,0.649993,0.718368,0.785196
0.746591,0.649933,0.718296,0.785118
0.746516,0.649872,0.718224,0.785039
0.746441,0.649812,0.718152,0.784961
0.746367,0.649752,0.718081,0.784882
0.746292,0.649691,0.718009,0.784804
0.746218,0.649631,0.717937,0.784725
0.746143,0.649571,0.717865,0.784647
0.746068,0.649511,0.717793,0.784569
0.745994,0.64945,0.717722,0.78449
0.745919,0.64939,0.71765,0.784412
0.745845,0.64933,0.717578,0.784333
0.74577,0.649269,0.717506,0.784255
0.745695,0.649209,0.717435,0.784176
0.745621,0.649149,0.717363,0.784098
0.745546,0.649089,0.717291,0.78402
0.745472,0.649028,0.717219,0.783941
0.745397,0.648968,0.717148,0.783863
0.745323,0.648908,0.717076,0.783784
0.745248,0.648848,0.717004,0.783706
0.745174,0.648788,0.716933,0.783628
0.745099,0.648727,0.716861,0.783549
0.745024,0.648667,0.716789,0.783471
0.74495,0.648607,0.716717,0.783393
0.744875,0.648547,0.716646,0.783314
0.744801,0.648486,0.716574,0.783236
0.744727,0.648426,0.716502,0.783158
0.744652,0.648366,0.716431,0.783079
0.744578,0.648306,0.716359,0.783001
0.744503,0.648246,0.716288,0.782923
0.744429,0.648186,0.716216,0.782844
0.744354,0.648125,0.716144,0.782766
0.74428,0.648065,0.716073,0.782688
0.744205,0.648005,0.716001,0.782609
0.744131,0.647945,0.715929,0.782531
0.744057,0.647885,0.715858,0.782453
0.743982,0.647825,0.715786,0.782375
0.743908,0.647765,0.715715,0.782296
0.743833,0.647704,0.715643,0.782218
0.743759,0.647644,0.715572,0.78214
0.743685,0.647584,0.7155,0.782062
0.74361,0.647524,0.715428,0.781984
0.743536,0.647464,0.715357,0.781905
0.743462,0.647404,0.715285,0.781827
0.743387,0.647344,0.715214,0.781749
0.743313,0.647284,0.715142,0.781671
0.743238,0.647224,0.715071,0.781593
0.743164,0.647164,0.714999,0.781515
0.74309,0.647103,0.714928,0.781436
0.743016,0.647043,0.714856,0.781358
0.742941,0.646983,0.714785,0.78128
0.742867,0.646923,0.714713,0.781202
0.742793,0.646863,0.714642,0.781124
0.742718,0.646803,0.71457,0.781046
0.742644,0.646743,0.714499,0.780968
0.74257,0.646683,0.714428,0.78089
0.742496,0.646623,0.714356,0.780811
0.742421,0.646563,0.714285,0.780733
0.742347,0.646503,0.714213,0.780655
0.742273,0.646443,0.714142,0.780577
0.742199,0.646383,0.71407,0.780499
0.742124,0.646323,0.713999,0.780421
0.74205,0.646263,0.713928,0.780343
0.741976,0.646203,0.713856,0.780265
0.741902,0.646143,0.713785,0.780187
0.741828,0.646083,0.713713,0.780109
0.741753,0.646023,0.713642,0.780031
0.741679,0.645963,0.713571,0.779953
0.741605,0.645903,0.713499,0.779875
0.741531,0.645843,0.713428,0.779797
0.741457,0.645783,0.713357,0.779719
0.741383,0.645723,0.713285,0.779641
0.741308,0.645663,0.713214,0.779563
0.741234,0.645603,0.713143,0.779485
0.74116,0.645544,0.713071,0.779407
0.741086,0.645484,0.713,0.779329
0.741012,0.645424,0.712929,0.779251
0.740938,0.645364,0.712857,0.779173
0.740864,0.645304,0.712786,0.779095
0.74079,0.645244,0.712715,0.779018
0.740716,0.645184,0.712644,0.77894
0.740642,0.645124,0.712572,0.778862
0.740568,0.645064,0.712501,0.778784
0.740493,0.645004,0.71243,0.778706
0.740419,0.644945,0.712359,0.778628
0.740345,0.644885,0.712287,0.77855
0.740271,0.644825,0.712216,0.778472
0.740197,0.644765,0.712145,0.778395
0.740123,0.644705,0.712074,0.778317
0.740049,0.644645,0.712002,0.778239
0.739975,0.644586,0.711931,0.778161
0.739901,0.644526,0.71186,0.778083
0.739827,0.644466,0.711789,0.778005
0.739753,0.644406,0.711718,0.777928
0.739679,0.644346,0.711647,0.77785
0.739605,0.644286,0.711575,0.777772
0.739531,0.644227,0.711504,0.777694
0.739457,0.644167,0.711433,0.777617
0.739383,0.644107,0.711362,0.777539
0.73931,0.644047,0.711291,0.777461
0.739236,0.643987,0.71122,0.777383
0.739162,0.643928,0.711149,0.777306
0.739088,0.643868,0.711077,0.777228
0.739014,0.643808,0.711006,0.77715
0.73894,0.643748,0.710935,0.777072
0.738866,0.643689,0.710864,0.776995
0.738792,0.643629,0.710793,0.776917
0.738718,0.643569,0.710722,0.776839
0.738644,0.643509,0.710651,0.776762
0.738571,0.64345,0.71058,0.776684
0.738497,0.64339,0.710509,0.776606
0.738423,0.64333,0.710438,0.776529
0.738349,0.643271,0.710367,0.776451
0.738275,0.643211,0.731605,0.776373
0.737832,0.643151,0.731531,0.776296
0.73739,0.643091,0.731458,0.776218
0.736947,0.643032,0.731385,0.77614
0.736505,0.642972,0.731312,0.776063
0.736063,0.642912,0.731239,0.775985
0.735622,0.642853,0.731166,0.775908
0.73518,0.642793,0.731093,0.77583
0.734739,0.642733,0.731019,0.775752
0.734298,0.642674,0.730946,0.775675
0.733858,0.642614,0.730873,0.775597
0.733418,0.642554,0.7308,0.77552
0.732978,0.642495,0.730727,0.775442
0.732538,0.642435,0.730654,0.775365
0.732098,0.642375,0.730581,0.775287
0.731659,0.642316,0.730508,0.77521
0.73122,0.642256,0.730435,0.775132
0.730781,0.642197,0.730362,0.775055
0.730343,0.642137,0.730289,0.774977
0.729905,0.642077,0.730216,0.774899
0.729467,0.642018,0.730143,0.774822
0.729029,0.641958,0.73007,0.774745
0.728592,0.641899,0.729997,0.774667
0.728155,0.641839,0.729924,0.77459
0.727718,0.641779,0.729851,0.774512
0.727281,0.64172,0.729778,0.774435
0.726845,0.64166,0.729705,0.774357
0.726409,0.641601,0.729632,0.77428
0.725973,0.641541,0.729559,0.774202
0.725901,0.641482,0.729486,0.774125
0.725828,0.641422,0.729413,0.774048
0.725755,0.641363,0.72934,0.77397
0.725683,0.641303,0.729267,0.773893
0.72561,0.641244,0.729194,0.773815
0.725538,0.641184,0.729121,0.773738
0.725465,0.641125,0.729048,0.773661
0.725393,0.641065,0.728975,0.773583
0.72532,0.641005,0.728902,0.773506
0.725247,0.640946,0.72883,0.773429
0.725175,0.640887,0.728757,0.773351
0.725102,0.640827,0.728684,0.773274
0.72503,0.640768,0.728611,0.773197
0.724957,0.640708,0.728538,0.773119
0.724885,0.640649,0.728465,0.773042
0.724812,0.640589,0.728392,0.772965
0.72474,0.64053,0.72832,0.772887
0.724667,0.64047,0.728247,0.77281
0.724595,0.640411,0.728174,0.772733
0.724523,0.640351,0.728101,0.772655
0.72445,0.640292,0.728028,0.772578
0.724378,0.640232,0.727955,0.772501
0.724305,0.640173,0.727883,0.772424
0.724233,0.640114,0.72781,0.772346
0.72416,0.640054,0.727737,0.772269
0.724088,0.639995,0.727664,0.772192
0.724016,0.639935,0.727592,0.772115
0.723943,0.639876,0.727519,0.772038
0.723871,0.639817,0.727446,0.77196
0.723798,0.639757,0.727373,0.771883
0.723726,0.639698,0.727301,0.771806
0.723654,0.639638,0.727228,0.771729
0.723581,0.639579,0.727155,0.771652
0.723509,0.63952,0.727082,0.771574
0.723437,0.63946,0.72701,0.771497
0.723364,0.639401,0.726937,0.77142
0.723292,0.639342,0.726864,0.771343
0.72322,0.639282,0.726792,0.771266
0.723147,0.639223,0.726719,0.771189
0.723075,0.639164,0.726646,0.771112
0.723003,0.639104,0.726574,0.771034
0.72293,0.639045,0.726501,0.770957
0.722858,0.638986,0.726428,0.77088
0.722786,0.638926,0.726356,0.770803
0.722713,0.638867,0.726283,0.770726
0.722641,0.638808,0.72621,0.770649
0.722569,0.638748,0.726138,0.770572
0.722497,0.638689,0.726065,0.770495
0.722424,0.63863,0.725993,0.770418
0.722352,0.638571,0.72592,0.770341
0.72228,0.638511,0.725847,0.770264
0.722208,0.638452,0.725775,0.770187
0.722135,0.638393,0.725702,0.77011
0.722063,0.638334,0.72563,0.770033
0.721991,0.638274,0.725557,0.769956
0.721919,0.638215,0.725484,0.769879
0.721847,0.638156,0.725412,0.769802
0.721774,0.638097,0.725339,0.769725
0.721702,0.638037,0.725267,0.769648
0.72163,0.637978,0.725194,0.769571
0.721558,0.637919,0.725122,0.769494
0.721486,0.63786,0.725049,0.769417
0.721414,0.6378,0.724977,0.76934
0.721342,0.637741,0.724904,0.769263
0.721269,0.637682,0.724832,0.769186
0.721197,0.637623,0.724759,0.769109
0.721125,0.637564,0.724687,0.769032
0.721053,0.637505,0.724614,0.768955
0.720981,0.637445,0.724542,0.768878
0.720909,0.637386,0.724469,0.768802
0.720837,0.637327,0.724397,0.768725
0.720765,0.637268,0.724325,0.768648
0.720693,0.637209,0.724252,0.768571
0.72062,0.63715,0.72418,0.768494
0.720548,0.63709,0.724107,0.768417
0.720476,0.637031,0.724035,0.76834
0.720404,0.636972,0.723962,0.768264
0.720332,0.636913,0.72389,0.768187
0.72026,0.636854,0.723818,0.76811
0.720188,0.636795,0.723745,0.768033
0.720116,0.636736,0.723673,0.767956
0.720044,0.636677,0.723601,0.76788
0.719972,0.636617,0.723528,0.767803
0.7199,0.636558,0.723456,0.767726
0.719828,0.636499,0.723384,0.767649
0.719756,0.63644,0.723311,0.767572
0.719684,0.636381,0.723239,0.767496
0.719612,0.636322,0.723167,0.767419
0.71954,0.636263,0.723094,0.767342
0.719468,0.636204,0.723022,0.767265
0.719396,0.636145,0.72295,0.767189
0.719324,0.636086,0.722877,0.767112
0.719253,0.636027,0.722805,0.767035
0.719181,0.635968,0.722733,0.766959
0.719109,0.635909,0.72266,0.766882
0.719037,0.63585,0.722588,0.766805
0.718965,0.635791,0.722516,0.766729
0.718893,0.635732,0.722444,0.766652
0.718821,0.635673,0.722371,0.766575
0.718749,0.635614,0.722299,0.766499
0.718677,0.635555,0.722227,0.766422
0.718605,0.635496,0.722155,0.766345
0.718534,0.635437,0.722083,0.766269
0.718462,0.635378,0.72201,0.766192
0.71839,0.635319,0.721938,0.766115
0.718318,0.63526,0.721866,0.766039
0.718246,0.635201,0.721794,0.765962
0.718174,0.635142,0.721722,0.765886
0.718103,0.635083,0.721649,0.765809
0.718031,0.635024,0.721577,0.765732
0.717959,0.634965,0.721505,0.765656
0.717887,0.634906,0.721433,0.765579
0.717815,0.634847,0.721361,0.765503
0.717744,0.634788,0.721289,0.765426
0.717672,0.634729,0.721217,0.76535
0.7176,0.63467,0.721144,0.765273
0.717528,0.634611,0.721072,0.765197
0.717457,0.634553,0.721,0.76512
0.717385,0.634494,0.720928,0.765044
0.717313,0.634435,0.720856,0.764967
0.717241,0.634376,0.720784,0.764891
0.71717,0.634317,0.720712,0.764814
0.717098,0.634258,0.72064,0.764738
0.717026,0.634199,0.720568,0.764661
0.716954,0.63414,0.720496,0.764585
0.716883,0.634082,0.720424,0.764508
0.716811,0.634023,0.720352,0.764432
0.716739,0.633964,0.720279,0.764355
0.716668,0.633905,0.720207,0.764279
0.716596,0.633846,0.720135,0.764202
0.716524,0.633787,0.720063,0.764126
0.716453,0.633728,0.719991,0.76405
0.716381,0.63367,0.719919,0.763973
0.716309,0.633611,0.719847,0.763897
0.716238,0.633552,0.719775,0.76382
0.716166,0.633493,0.719703,0.763744
0.716095,0.633434,0.719631,0.763668
0.716023,0.633376,0.71956,0.763591
0.715951,0.633317,0.719488,0.763515
0.71588,0.633258,0.719416,0.763439
0.715808,0.633199,0.719344,0.763362
0.715737,0.63314,0.719272,0.763286
0.715665,0.633082,0.7192,0.76321
0.715594,0.633023,0.719128,0.763133
0.715522,0.632964,0.719056,0.763057
0.71545,0.632905,0.718984,0.762981
0.715379,0.632847,0.718912,0.762904
0.715307,0.632788,0.71884,0.762828
0.715236,0.632729,0.718768,0.762752
0.715164,0.63267,0.718697,0.762675
0.715093,0.632612,0.718625,0.762599
0.715021,0.632553,0.718553,0.762523
0.71495,0.632494,0.718481,0.762447
0.714878,0.632436,0.718409,0.76237
0.714807,0.632377,0.718337,0.762294
0.714735,0.632318,0.718265,0.762218
0.714664,0.63226,0.718194,0.762142
0.714592,0.632201,0.718122,0.762065
0.714521,0.632142,0.71805,0.761989
0.714449,0.632083,0.717978,0.761913
0.714378,0.632025,0.717906,0.761837
0.714307,0.631966,0.717835,0.761761
0.714235,0.631907,0.717763,0.761685
0.714164,0.631849,0.717691,0.761608
0.714092,0.63179,0.717619,0.761532
0.714021,0.631732,0.717547,0.761456
0.713949,0.631673,0.717476,0.76138
0.713878,0.631614,0.717404,0.761304
0.713807,0.631556,0.717332,0.761228
0.713735,0.631497,0.717261,0.761152
0.713664,0.631438,0.717189,0.761075
0.713593,0.63138,0.717117,0.760999
0.713521,0.631321,0.717045,0.760923
0.71345,0.631263,0.716974,0.760847
0.713378,0.631204,0.716902,0.760771
0.713307,0.631145,0.71683,0.760695
0.713236,0.631087,0.716759,0.760619
0.713165,0.631028,0.716687,0.760543
0.713093,0.63097,0.716615,0.760467
0.713022,0.630911,0.716544,0.760391
0.712951,0.630853,0.716472,0.760315
0.712879,0.630794,0.7164,0.760239
0.712808,0.630735,0.716329,0.760163
0.712737,0.630677,0.716257,0.760087
0.712665,0.630618,0.716185,0.760011
0.712594,0.63056,0.716114,0.759935
0.712523,0.630501,0.716042,0.759859
0.712452,0.630443,0.715971,0.759783
0.71238,0.630384,0.715899,0.759707
0.712309,0.630326,0.715827,0.759631
0.712238,0.630267,0.715756,0.759555
0.712167,0.630209,0.715684,0.759479
0.712096,0.63015,0.715613,0.759403
0.712024,0.630092,0.715541,0.759327
0.711953,0.630033,0.71547,0.759251
0.711882,0.629975,0.715398,0.759175
0.711811,0.629916,0.715326,0.759099
0.71174,0.629858,0.715255,0.759023
0.711668,0.629799,0.715183,0.758947
0.711597,0.629741,0.715112,0.758871
0.711526,0.629682,0.71504,0.758795
0.711455,0.629624,0.714969,0.75872
0.711384,0.629566,0.714897,0.758644
0.711313,0.629507,0.714826,0.758568
0.711241,0.629449,0.714754,0.758492
0.71117,0.62939,0.714683,0.758416
0.711099,0.629332,0.714611,0.75834
0.711028,0.629273,0.71454,0.758264
0.710957,0.629215,0.714468,0.758189
0.710886,0.629157,0.714397,0.758113
0.710815,0.629098,0.714326,0.758037
0.710744,0.62904,0.714254,0.757961
0.710673,0.628981,0.714183,0.757885
0.710602,0.628923,0.714111,0.75781
0.710531,0.628865,0.71404,0.757734
0.710459,0.628806,0.713969,0.757658
0.710388,0.628748,0.713897,0.757582
0.710317,0.62869,0.713826,0.757507
0.710246,0.628631,0.713754,0.757431
0.710175,0.628573,0.713683,0.757355
0.710104,0.628515,0.713612,0.757279
0.710033,0.628456,0.71354,0.757204
0.709962,0.628398,0.713469,0.757128
0.709891,0.62834,0.713398,0.757052
0.70982,0.628281,0.713326,0.756976
0.709749,0.628223,0.713255,0.756901
0.709678,0.628165,0.713184,0.756825
0.709607,0.628106,0.713112,0.756749
0.709536,0.628048,0.713041,0.756674
0.709465,0.62799,0.71297,0.756598
0.709395,0.627931,0.712898,0.756522
0.709324,0.627873,0.712827,0.756447
0.709253,0.627815,0.712756,0.756371
0.709182,0.627757,0.712684,0.756295
0.709111,0.627698,0.712613,0.75622
0.70904,0.62764,0.712542,0.756144
0.708969,0.627582,0.712471,0.756069
0.708898,0.627524,0.712399,0.755993
0.708827,0.627465,0.712328,0.755917
0.708756,0.627407,0.712257,0.755842
0.708685,0.627349,0.712186,0.755766
0.708615,0.627291,0.712115,0.755691
0.708544,0.627232,0.712043,0.755615
0.708473,0.627174,0.711972,0.75554
0.708402,0.627116,0.711901,0.755464
0.708331,0.627058,0.71183,0.755388
0.70826,0.626999,0.711759,0.755313
0.70819,0.626941,0.711687,0.755237
0.708119,0.626883,0.711616,0.755162
0.708048,0.626825,0.711545,0.755086
0.707977,0.626767,0.711474,0.755011
0.707906,0.626709,0.711403,0.754935
0.707836,0.62665,0.711332,0.75486
0.707765,0.626592,0.71126,0.754784
0.707694,0.626534,0.711189,0.754709
0.707623,0.626476,0.711118,0.754633
0.707552,0.626418,0.711047,0.754558
0.707482,0.62636,0.710976,0.754482
0.707411,0.626301,0.710905,0.754407
0.70734,0.626243,0.710834,0.754332
0.707269,0.626185,0.710763,0.754256
0.707199,0.626127,0.710692,0.754181
0.707128,0.626069,0.710621,0.754105
0.707057,0.626011,0.71055,0.75403
0.706987,0.625953,0.710478,0.753954
0.706916,0.625895,0.710407,0.753879
0.706845,0.625837,0.731646,0.753804
0.706421,0.625778,0.731573,0.753728
0.705997,0.62572,0.7315,0.753653
0.705574,0.625662,0.731427,0.753578
0.70515,0.625604,0.731354,0.753502
0.704727,0.625546,0.731281,0.753427
0.704305,0.625488,0.731208,0.753352
0.703882,0.62543,0.731134,0.753276
0.70346,0.625372,0.731061,0.753201
0.703038,0.625314,0.730988,0.753126
0.702616,0.625256,0.730915,0.75305
0.702194,0.625198,0.730842,0.752975
0.701773,0.62514,0.730769,0.7529
0.701352,0.625082,0.730696,0.752824
0.700931,0.625024,0.730623,0.752749
0.700511,0.624966,0.73055,0.752674
0.70009,0.624908,0.730477,0.752598
0.69967,0.62485,0.730404,0.752523
0.699251,0.624792,0.730331,0.752448
0.698831,0.624734,0.730258,0.752373
0.698412,0.624676,0.730185,0.752298
0.697993,0.624618,0.730112,0.752222
0.697574,0.62456,0.730039,0.752147
0.697156,0.624502,0.729966,0.752072
0.696737,0.624444,0.729893,0.751997
0.696319,0.624386,0.72982,0.751921
0.695902,0.624328,0.729747,0.751846
0.695484,0.62427,0.729674,0.751771
0.695067,0.624212,0.729601,0.751696
0.69465,0.624154,0.729528,0.751621
0.694233,0.624096,0.729455,0.751546
0.693817,0.624038,0.729382,0.75147
0.6934,0.62398,0.729309,0.751395
0.692984,0.623922,0.729236,0.75132
0.692569,0.623864,0.729163,0.751245
0.692153,0.623807,0.72909,0.75117
0.691738,0.623749,0.729017,0.751095
0.691323,0.623691,0.728944,0.75102
0.690908,0.623633,0.728871,0.750945
0.690494,0.623575,0.728798,0.750869
0.690079,0.623517,0.728726,0.750794
0.689665,0.623459,0.728653,0.750719
0.689251,0.623401,0.72858,0.750644
0.688838,0.623344,0.728507,0.750569
0.688425,0.623286,0.728434,0.750494
0.688012,0.623228,0.728361,0.750419
0.687943,0.62317,0.728288,0.750344
0.687874,0.623112,0.728216,0.750269
0.687461,0.623054,0.728143,0.750194
0.687049,0.622996,0.72807,0.750119
0.686637,0.622939,0.727997,0.750044
0.686225,0.622881,0.727924,0.749969
0.685813,0.622823,0.727852,0.749894
0.685402,0.622765,0.727779,0.749819
0.68499,0.622707,0.727706,0.749744
0.684579,0.62265,0.727633,0.749669
0.684169,0.622592,0.72756,0.749594
0.683758,0.622534,0.727488,0.749519
0.683348,0.622476,0.727415,0.749444
0.682938,0.622418,0.727342,0.749369
0.682528,0.622361,0.72727,0.749294
0.682119,0.622303,0.727197,0.749219
0.68171,0.622245,0.727124,0.749144
0.681301,0.622187,0.727051,0.749069
0.680892,0.62213,0.726979,0.748994
0.680483,0.622072,0.726906,0.74892
0.680075,0.622014,0.726833,0.748845
0.679667,0.621956,0.726761,0.74877
0.679259,0.621899,0.726688,0.748695
0.678852,0.621841,0.726615,0.74862
0.678445,0.621783,0.726543,0.748545
0.678038,0.621725,0.72647,0.74847
0.677631,0.621668,0.726397,0.748396
0.677224,0.62161,0.726325,0.748321
0.676818,0.621552,0.726252,0.748246
0.676412,0.621495,0.726179,0.748171
0.676006,0.621437,0.726107,0.748096
0.6756,0.621379,0.726034,0.748021
0.675195,0.621322,0.725962,0.747947
0.67479,0.621264,0.725889,0.747872
0.674385,0.621206,0.725816,0.747797
0.673981,0.621149,0.725744,0.747722
0.673576,0.621091,0.725671,0.747647
0.673172,0.621033,0.725599,0.747573
0.672768,0.620976,0.725526,0.747498
0.672365,0.620918,0.725454,0.747423
0.671961,0.62086,0.725381,0.747348
0.671558,0.620803,0.725308,0.747274
0.671155,0.620745,0.725236,0.747199
0.670753,0.620688,0.725163,0.747124
0.67035,0.62063,0.725091,0.74705
0.669948,0.620572,0.725018,0.746975
0.669546,0.620515,0.724946,0.7469
0.669144,0.620457,0.724873,0.746825
0.668743,0.6204,0.724801,0.746751
0.668342,0.620342,0.724728,0.746676
0.667941,0.620284,0.724656,0.746601
0.66754,0.620227,0.724583,0.746527
0.66714,0.620169,0.724511,0.746452
0.666739,0.620112,0.724439,0.746377
0.666339,0.620054,0.724366,0.746303
0.665939,0.619997,0.724294,0.746228
0.66554,0.619939,0.724221,0.746154
0.665141,0.619881,0.724149,0.746079
0.664742,0.619824,0.724076,0.746004
