energy,productivity,fun,hunger
0.753219,0.703332,0.580381,0.568466
0.753144,0.703332,0.597733,0.56841
0.752692,0.703331,0.615604,0.568353
0.752241,0.70333,0.634008,0.568296
0.751789,0.703329,0.652963,0.568239
0.751338,0.703328,0.672485,0.568182
0.750888,0.703327,0.69259,0.568125
0.750437,0.703327,0.713296,0.568069
0.749987,0.703326,0.734622,0.568012
0.749537,0.703325,0.734548,0.567955
0.749087,0.703324,0.734475,0.567898
0.748638,0.703323,0.734402,0.567841
0.748189,0.703322,0.734328,0.567785
0.74774,0.703322,0.734255,0.567728
0.747291,0.703321,0.734181,0.567671
0.746843,0.70332,0.734108,0.567614
0.746395,0.703319,0.734034,0.567558
0.745947,0.703318,0.733961,0.567501
0.745499,0.703317,0.733888,0.567444
0.745052,0.703316,0.733814,0.567387
0.744605,0.703316,0.733741,0.567331
0.744158,0.703315,0.733667,0.567274
0.743712,0.703314,0.733594,0.567217
0.743266,0.703313,0.733521,0.56716
0.74282,0.703312,0.733447,0.567104
0.742374,0.703311,0.733374,0.567047
0.741929,0.703311,0.733301,0.56699
0.741484,0.70331,0.733227,0.566934
0.741039,0.703309,0.733154,0.566877
0.740594,0.703308,0.733081,0.56682
0.74015,0.703307,0.733007,0.566764
0.739706,0.703306,0.732934,0.566707
0.739262,0.703306,0.732861,0.56665
0.738819,0.703305,0.732788,0.566594
0.738375,0.703304,0.732714,0.566537
0.737932,0.703303,0.732641,0.56648
0.73749,0.703302,0.732568,0.566424
0.737047,0.703301,0.732494,0.566367
0.736605,0.7033,0.732421,0.56631
0.736163,0.7033,0.732348,0.566254
0.735721,0.703299,0.732275,0.566197
0.73528,0.703298,0.732202,0.56614
0.734839,0.703297,0.732128,0.566084
0.734398,0.703296,0.732055,0.566027
0.733957,0.703295,0.731982,0.565971
0.733517,0.703295,0.731909,0.565914
0.733444,0.703294,0.731836,0.565857
0.73337,0.703293,0.731762,0.565801
0.733297,0.703292,0.731689,0.565744
0.733224,0.703291,0.731616,0.565688
0.73315,0.70329,0.731543,0.565631
0.733077,0.70329,0.73147,0.565575
0.733004,0.703289,0.731397,0.565518
0.73293,0.703288,0.731323,0.565461
0.732857,0.703287,0.73125,0.565405
0.732784,0.703286,0.731177,0.565348
0.732711,0.703285,0.731104,0.565292
0.732637,0.703285,0.731031,0.565235
0.732564,0.703284,0.730958,0.565179
0.732491,0.703283,0.730885,0.565122
0.732418,0.703282,0.730812,0.565066
0.732344,0.703281,0.730739,0.565009
0.732271,0.70328,0.730665,0.564953
0.732198,0.703279,0.730592,0.564896
0.732125,0.703279,0.730519,0.56484
0.732051,0.703278,0.730446,0.564783
0.731978,0.703277,0.730373,0.564727
0.731905,0.703276,0.7303,0.56467
0.731832,0.703275,0.730227,0.564614
0.731759,0.703274,0.730154,0.564557
0.731685,0.703274,0.730081,0.564501
0.731612,0.703273,0.730008,0.564444
0.731539,0.703272,0.729935,0.564388
0.731466,0.703271,0.729862,0.564332
0.731393,0.70327,0.729789,0.564275
0.73132,0.703269,0.729716,0.564219
0.731247,0.703269,0.729643,0.564162
0.731173,0.703268,0.72957,0.564106
0.7311,0.703267,0.729497,0.564049
0.731027,0.703266,0.729424,0.563993
0.730954,0.703265,0.729351,0.563937
0.730881,0.703264,0.729278,0.56388
0.730808,0.703263,0.729206,0.563824
0.730735,0.703263,0.729133,0.563767
0.730662,0.703262,0.72906,0.563711
0.730589,0.703261,0.728987,0.563655
0.730516,0.70326,0.728914,0.563598
0.730443,0.703259,0.728841,0.563542
0.73037,0.703258,0.728768,0.563486
0.730297,0.703258,0.728695,0.563429
0.730224,0.703257,0.728622,0.563373
0.73015,0.703256,0.728549,0.563317
0.730077,0.703255,0.728477,0.56326
0.730004,0.703254,0.728404,0.563204
0.729931,0.703253,0.728331,0.563148
0.729858,0.703253,0.728258,0.563091
0.729785,0.703252,0.728185,0.563035
0.729713,0.703251,0.728112,0.562979
0.72964,0.70325,0.72804,0.562922
0.729567,0.703249,0.727967,0.562866
0.729494,0.703248,0.727894,0.56281
0.729421,0.703248,0.727821,0.562754
0.729348,0.703247,0.727748,0.562697
0.729275,0.703246,0.727676,0.562641
0.729202,0.703245,0.727603,0.562585
0.729129,0.703244,0.72753,0.562528
0.729056,0.703243,0.727457,0.562472
0.728983,0.703242,0.727385,0.562416
0.72891,0.703242,0.727312,0.56236
0.728837,0.703241,0.727239,0.562304
0.728764,0.70324,0.727166,0.562247
0.728692,0.703239,0.727094,0.562191
0.728619,0.703238,0.727021,0.562135
0.728546,0.703237,0.726948,0.562079
0.728473,0.703237,0.726876,0.562022
0.7284,0.703236,0.726803,0.561966
0.728327,0.703235,0.72673,0.56191
0.728254,0.703234,0.726658,0.561854
0.728182,0.703233,0.726585,0.561798
0.728109,0.703232,0.726512,0.561741
0.728036,0.703232,0.72644,0.561685
0.727963,0.703231,0.726367,0.561629
0.72789,0.70323,0.726294,0.561573
0.727818,0.703229,0.726222,0.561517
0.727745,0.703228,0.726149,0.561461
0.727672,0.703227,0.726077,0.561404
0.727599,0.703227,0.726004,0.561348
0.727527,0.703226,0.725931,0.561292
0.727454,0.703225,0.725859,0.561236
0.727381,0.703224,0.725786,0.56118
0.727308,0.703223,0.725714,0.561124
0.727236,0.703222,0.725641,0.561068
0.727163,0.703221,0.725568,0.561012
0.72709,0.703221,0.725496,0.560956
0.727017,0.70322,0.725423,0.560899
0.726945,0.703219,0.725351,0.560843
0.726872,0.703218,0.725278,0.560787
0.726799,0.703217,0.725206,0.560731
0.726727,0.703216,0.725133,0.560675
0.726654,0.703216,0.725061,0.560619
0.726581,0.703215,0.724988,0.560563
0.726509,0.703214,0.724916,0.560507
0.726436,0.703213,0.724843,0.560451
0.726363,0.703212,0.724771,0.560395
0.726291,0.703211,0.724698,0.560339
0.726218,0.703211,0.724626,0.560283
0.726145,0.70321,0.724553,0.560227
0.726073,0.703209,0.724481,0.560171
0.726,0.703208,0.724408,0.560115
0.725928,0.703207,0.724336,0.560059
0.725855,0.703206,0.724263,0.560003
0.725782,0.703205,0.724191,0.559947
0.72571,0.703205,0.724119,0.559891
0.725637,0.703204,0.724046,0.559835
0.725565,0.703203,0.723974,0.559779
0.725492,0.703202,0.723901,0.559723
0.72542,0.703201,0.723829,0.559667
0.725347,0.7032,0.723757,0.559611
0.725275,0.7032,0.723684,0.559555
0.725202,0.703199,0.723612,0.559499
0.72513,0.703198,0.72354,0.559443
0.725057,0.703197,0.723467,0.559387
0.724985,0.703196,0.723395,0.559331
0.724912,0.703195,0.723323,0.559275
0.72484,0.703195,0.72325,0.559219
0.724767,0.703194,0.723178,0.559163
0.724695,0.703193,0.723106,0.559107
0.724622,0.703192,0.723033,0.559051
0.72455,0.703191,0.722961,0.558996
0.724477,0.70319,0.722889,0.55894
0.724405,0.70319,0.722816,0.558884
0.724332,0.703189,0.722744,0.558828
0.72426,0.703188,0.722672,0.558772
0.724187,0.703187,0.7226,0.558716
0.724115,0.703186,0.722527,0.55866
0.724043,0.703185,0.722455,0.558604
0.72397,0.703184,0.722383,0.558548
0.723898,0.703184,0.722311,0.558493
0.723825,0.703183,0.722238,0.558437
0.723753,0.703182,0.722166,0.558381
0.723681,0.703181,0.722094,0.558325
0.723608,0.70318,0.722022,0.558269
0.723536,0.703179,0.721949,0.558213
0.723464,0.703179,0.721877,0.558158
0.723391,0.703178,0.721805,0.558102
0.723319,0.703177,0.721733,0.558046
0.723247,0.703176,0.721661,0.55799
0.723174,0.703175,0.721589,0.557934
0.723102,0.703174,0.721516,0.557879
0.72303,0.703174,0.721444,0.557823
0.722957,0.703173,0.721372,0.557767
0.722885,0.703172,0.7213,0.557711
0.722813,0.703171,0.721228,0.557655
0.72274,0.70317,0.721156,0.5576
0.722668,0.703169,0.721084,0.557544
0.722596,0.703169,0.721011,0.557488
0.722524,0.703168,0.720939,0.557432
0.722451,0.703167,0.720867,0.557377
0.722379,0.703166,0.720795,0.557321
0.722307,0.703165,0.720723,0.557265
0.722235,0.703164,0.720651,0.55721
0.722162,0.703163,0.720579,0.557154
0.72209,0.703163,0.720507,0.557098
0.722018,0.703162,0.720435,0.557042
0.721946,0.703161,0.720363,0.556987
0.721874,0.70316,0.720291,0.556931
0.721801,0.703159,0.720219,0.556875
0.721729,0.703158,0.720147,0.55682
0.721657,0.703158,0.720075,0.556764
0.721585,0.703157,0.720003,0.556708
0.721513,0.703156,0.719931,0.556653
0.721441,0.703155,0.719859,0.556597
0.721368,0.703154,0.719787,0.556541
0.721296,0.703153,0.719715,0.556486
0.721224,0.703153,0.719643,0.55643
0.721152,0.703152,0.719571,0.556374
0.72108,0.703151,0.719499,0.556319
0.721008,0.70315,0.719427,0.556263
0.720936,0.703149,0.719355,0.556207
0.720864,0.703148,0.719283,0.556152
0.720792,0.703147,0.719211,0.556096
0.720719,0.703147,0.719139,0.556041
0.720647,0.703146,0.719067,0.555985
0.720575,0.703145,0.718995,0.555929
0.720503,0.703144,0.718923,0.555874
0.720431,0.703143,0.718852,0.555818
0.720359,0.703142,0.71878,0.555763
0.720287,0.703142,0.718708,0.555707
0.720215,0.703141,0.718636,0.555651
0.720143,0.70314,0.718564,0.555596
0.720071,0.703139,0.718492,0.55554
0.719999,0.703138,0.71842,0.555485
0.719927,0.703137,0.718349,0.555429
0.719855,0.703137,0.718277,0.555374
0.719783,0.703136,0.718205,0.555318
0.719711,0.703135,0.718133,0.555263
0.719639,0.703134,0.718061,0.555207
0.719567,0.703133,0.717989,0.555152
0.719495,0.703132,0.717918,0.555096
0.719423,0.703132,0.717846,0.555041
0.719351,0.703131,0.717774,0.554985
0.719279,0.70313,0.717702,0.55493
0.719207,0.703129,0.71763,0.554874
0.719136,0.703128,0.717559,0.554819
0.719064,0.703127,0.717487,0.554763
0.718992,0.703126,0.717415,0.554708
0.71892,0.703126,0.717343,0.554652
0.718848,0.703125,0.717272,0.554597
0.718776,0.703124,0.7172,0.554541
0.718704,0.703123,0.717128,0.554486
0.718632,0.703122,0.717057,0.55443
0.71856,0.703121,0.716985,0.554375
0.718489,0.703121,0.716913,0.554319
0.718417,0.70312,0.716841,0.554264
0.718345,0.703119,0.71677,0.554209
0.718273,0.703118,0.716698,0.554153
0.718201,0.703117,0.716626,0.554098
0.718129,0.703116,0.716555,0.554042
0.718058,0.703116,0.716483,0.553987
0.717986,0.703115,0.716411,0.553931
0.717914,0.703114,0.71634,0.553876
0.717842,0.703113,0.716268,0.553821
0.71777,0.703112,0.716197,0.553765
0.717699,0.703111,0.716125,0.55371
0.717627,0.703111,0.716053,0.553655
0.717555,0.70311,0.715982,0.553599
0.717483,0.703109,0.71591,0.553544
0.717412,0.703108,0.715839,0.553488
0.71734,0.703107,0.715767,0.553433
0.717268,0.703106,0.715695,0.553378
0.717196,0.703105,0.715624,0.553322
0.717125,0.703105,0.715552,0.553267
0.717053,0.703104,0.715481,0.553212
0.716981,0.703103,0.715409,0.553156
0.71691,0.703102,0.715338,0.553101
0.716838,0.703101,0.715266,0.553046
0.716766,0.7031,0.715195,0.552991
0.716695,0.7031,0.715123,0.552935
0.716623,0.703099,0.715052,0.55288
0.716551,0.703098,0.71498,0.552825
0.71648,0.703097,0.714909,0.552769
0.716408,0.703096,0.714837,0.552714
0.716336,0.703095,0.714766,0.552659
0.716265,0.703095,0.714694,0.552604
0.716193,0.703094,0.714623,0.552548
0.716121,0.703093,0.714551,0.552493
0.71605,0.703092,0.71448,0.552438
0.715978,0.703091,0.714408,0.552383
0.715907,0.70309,0.714337,0.552327
0.715835,0.703089,0.714265,0.552272
0.715763,0.703089,0.714194,0.552217
0.715692,0.703088,0.714123,0.552162
0.71562,0.703087,0.714051,0.552106
0.715549,0.703086,0.71398,0.552051
0.715477,0.703085,0.713908,0.551996
0.715406,0.703084,0.713837,0.551941
0.715334,0.703084,0.713766,0.551886
0.715263,0.703083,0.713694,0.55183
0.715191,0.703082,0.713623,0.551775
0.715119,0.703081,0.713551,0.55172
0.715048,0.70308,0.71348,0.551665
0.714976,0.703079,0.713409,0.55161
0.714905,0.703079,0.713337,0.551555
0.714833,0.703078,0.713266,0.551499
0.714762,0.703077,0.713195,0.551444
0.714691,0.703076,0.713123,0.551389
0.714619,0.703075,0.713052,0.551334
0.714548,0.703074,0.712981,0.551279
0.714476,0.703074,0.712909,0.551224
0.714405,0.703073,0.712838,0.551169
0.714333,0.703072,0.712767,0.551113
0.714262,0.703071,0.712696,0.551058
0.71419,0.70307,0.712624,0.551003
0.714119,0.703069,0.712553,0.550948
0.714048,0.703068,0.712482,0.550893
0.713976,0.703068,0.712411,0.550838
0.713905,0.703067,0.712339,0.550783
0.713833,0.703066,0.712268,0.550728
0.713762,0.703065,0.712197,0.550673
0.713691,0.703064,0.712126,0.550618
0.713619,0.703063,0.712054,0.550563
0.713548,0.703063,0.711983,0.550508
0.713477,0.703062,0.711912,0.550453
0.713405,0.703061,0.711841,0.550397
0.713334,0.70306,0.71177,0.550342
0.713262,0.703059,0.711699,0.550287
0.713191,0.703058,0.711627,0.550232
0.71312,0.703058,0.711556,0.550177
0.713049,0.703057,0.711485,0.550122
0.712977,0.703056,0.711414,0.550067
0.712906,0.703055,0.711343,0.550012
0.712835,0.703054,0.711272,0.549957
0.712763,0.703053,0.7112,0.549902
0.712692,0.703053,0.711129,0.549847
0.712621,0.703052,0.711058,0.549792
0.71255,0.703051,0.710987,0.549737
0.712478,0.70305,0.710916,0.549682
0.712407,0.703049,0.710845,0.549627
0.712336,0.703048,0.710774,0.549572
0.712265,0.703047,0.710703,0.549517
0.712193,0.703047,0.710632,0.549463
0.712122,0.703046,0.710561,0.549408
0.712051,0.703045,0.71049,0.549353
0.71198,0.703044,0.710419,0.549298
0.711909,0.703043,0.731658,0.549243
0.711481,0.703042,0.731585,0.549188
0.711055,0.703042,0.731512,0.549133
0.710628,0.703041,0.731438,0.549078
0.710202,0.70304,0.731365,0.549023
0.709776,0.703039,0.731292,0.548968
0.70935,0.703038,0.731219,0.548913
0.708924,0.703037,0.731146,0.548858
0.708499,0.703037,0.731073,0.548804
0.708074,0.703036,0.731,0.548749
0.707649,0.703035,0.730927,0.548694
0.707224,0.703034,0.730854,0.548639
0.7068,0.703033,0.73078,0.548584
0.706376,0.703032,0.730707,0.548529
0.705952,0.703032,0.730634,0.548474
0.705529,0.703031,0.730561,0.54842
0.705105,0.70303,0.730488,0.548365
0.704682,0.703029,0.730415,0.54831
0.70426,0.703028,0.730342,0.548255
0.703837,0.703027,0.730269,0.5482
0.703415,0.703026,0.730196,0.548145
0.702993,0.703026,0.730123,0.548091
0.702571,0.703025,0.73005,0.548036
0.70215,0.703024,0.729977,0.547981
0.701728,0.703023,0.729904,0.547926
0.701307,0.703022,0.729831,0.547871
0.700887,0.703021,0.729758,0.547817
0.700466,0.703021,0.729685,0.547762
0.700046,0.70302,0.729612,0.547707
0.699626,0.703019,0.729539,0.547652
0.699206,0.703018,0.729466,0.547597
0.698787,0.703017,0.729393,0.547543
0.698367,0.703016,0.72932,0.547488
0.697948,0.703016,0.729247,0.547433
0.69753,0.703015,0.729174,0.547378
0.697111,0.703014,0.729101,0.547324
0.697041,0.703013,0.729029,0.547269
0.696972,0.703012,0.728956,0.547214
0.696902,0.703011,0.728883,0.54716
0.696832,0.70301,0.72881,0.547105
0.696763,0.70301,0.728737,0.54705
0.696693,0.703009,0.728664,0.546995
0.696623,0.703008,0.728591,0.546941
0.696554,0.703007,0.728518,0.546886
0.696484,0.703006,0.728446,0.546831
0.696414,0.703005,0.728373,0.546777
0.696345,0.703005,0.7283,0.546722
0.696275,0.703004,0.728227,0.546667
0.696205,0.703003,0.728154,0.546613
0.696136,0.703002,0.728081,0.546558
0.696066,0.703001,0.728009,0.546503
0.695997,0.703,0.727936,0.546449
0.695927,0.703,0.727863,0.546394
0.695857,0.702999,0.72779,0.546339
0.695788,0.702998,0.727717,0.546285
0.695718,0.702997,0.727645,0.54623
0.695649,0.702996,0.727572,0.546175
0.695579,0.702995,0.727499,0.546121
0.69551,0.702995,0.727426,0.546066
0.69544,0.702994,0.727354,0.546012
0.69537,0.702993,0.727281,0.545957
0.695301,0.702992,0.727208,0.545902
0.695231,0.702991,0.727135,0.545848
0.695162,0.70299,0.727063,0.545793
0.695092,0.702989,0.72699,0.545739
0.695023,0.702989,0.726917,0.545684
0.694953,0.702988,0.726845,0.54563
0.694884,0.702987,0.726772,0.545575
0.694814,0.702986,0.726699,0.54552
0.694745,0.702985,0.726627,0.545466
0.694675,0.702984,0.726554,0.545411
0.694606,0.702984,0.726481,0.545357
0.694536,0.702983,0.726409,0.545302
0.694467,0.702982,0.726336,0.545248
0.694398,0.702981,0.726263,0.545193
0.694328,0.70298,0.726191,0.545139
0.694259,0.702979,0.726118,0.545084
0.694189,0.702979,0.726046,0.54503
0.69412,0.702978,0.725973,0.544975
0.69405,0.702977,0.7259,0.544921
0.693981,0.702976,0.725828,0.544866
0.693912,0.702975,0.725755,0.544812
0.693842,0.702974,0.725683,0.544757
0.693773,0.702974,0.72561,0.544703
0.693703,0.702973,0.725537,0.544648
0.693634,0.702972,0.725465,0.544594
0.693565,0.702971,0.725392,0.544539
0.693495,0.70297,0.72532,0.544485
0.693426,0.702969,0.725247,0.54443
0.693357,0.702968,0.725175,0.544376
0.693287,0.702968,0.725102,0.544322
0.693218,0.702967,0.72503,0.544267
0.693149,0.702966,0.724957,0.544213
0.693079,0.702965,0.724885,0.544158
0.69301,0.702964,0.724812,0.544104
0.692941,0.702963,0.72474,0.544049
0.692871,0.702963,0.724667,0.543995
0.692802,0.702962,0.724595,0.543941
0.692733,0.702961,0.724522,0.543886
0.692664,0.70296,0.72445,0.543832
0.692594,0.702959,0.724377,0.543777
0.692525,0.702958,0.724305,0.543723
0.692456,0.702958,0.724233,0.543669
0.692387,0.702957,0.72416,0.543614
0.692317,0.702956,0.724088,0.54356
0.692248,0.702955,0.724015,0.543506
0.692179,0.702954,0.723943,0.543451
0.69211,0.702953,0.723871,0.543397
0.692041,0.702953,0.723798,0.543343
0.691971,0.702952,0.723726,0.543288
0.691902,0.702951,0.723653,0.543234
0.691833,0.70295,0.723581,0.54318
0.691764,0.702949,0.723509,0.543125
0.691695,0.702948,0.723436,0.543071
0.691625,0.702947,0.723364,0.543017
0.691556,0.702947,0.723292,0.542962
0.691487,0.702946,0.723219,0.542908
0.691418,0.702945,0.723147,0.542854
0.691349,0.702944,0.723075,0.542799
0.69128,0.702943,0.723002,0.542745
0.691211,0.702942,0.72293,0.542691
0.691141,0.702942,0.722858,0.542637
0.691072,0.702941,0.722785,0.542582
0.691003,0.70294,0.722713,0.542528
0.690934,0.702939,0.722641,0.542474
0.690865,0.702938,0.722569,0.54242
0.690796,0.702937,0.722496,0.542365
0.690727,0.702937,0.722424,0.542311
0.690658,0.702936,0.722352,0.542257
0.690589,0.702935,0.72228,0.542203
0.69052,0.702934,0.722207,0.542148
0.690451,0.702933,0.722135,0.542094
0.690382,0.702932,0.722063,0.54204
0.690312,0.702932,0.721991,0.541986
0.690243,0.702931,0.721919,0.541932
0.690174,0.70293,0.721846,0.541877
0.690105,0.702929,0.721774,0.541823
0.690036,0.702928,0.721702,0.541769
0.689967,0.702927,0.72163,0.541715
0.689898,0.702926,0.721558,0.541661
0.689829,0.702926,0.721486,0.541607
0.68976,0.702925,0.721413,0.541552
0.689691,0.702924,0.721341,0.541498
0.689622,0.702923,0.721269,0.541444
0.689554,0.702922,0.721197,0.54139
0.689485,0.702921,0.721125,0.541336
0.689416,0.702921,0.721053,0.541282
0.689347,0.70292,0.720981,0.541228
0.689278,0.702919,0.720909,0.541173
0.689209,0.702918,0.720837,0.541119
0.68914,0.702917,0.720764,0.541065
0.689071,0.702916,0.720692,0.541011
0.689002,0.702916,0.72062,0.540957
0.688933,0.702915,0.720548,0.540903
0.688864,0.702914,0.720476,0.540849
0.688795,0.702913,0.720404,0.540795
0.688727,0.702912,0.720332,0.540741
0.688658,0.702911,0.72026,0.540687
0.688589,0.702911,0.720188,0.540633
0.68852,0.70291,0.720116,0.540578
0.688451,0.702909,0.720044,0.540524
0.688382,0.702908,0.719972,0.54047
0.688313,0.702907,0.7199,0.540416
0.688245,0.702906,0.719828,0.540362
0.688176,0.702905,0.719756,0.540308
0.688107,0.702905,0.719684,0.540254
0.688038,0.702904,0.719612,0.5402
0.687969,0.702903,0.71954,0.540146
0.6879,0.702902,0.719468,0.540092
0.687832,0.702901,0.719396,0.540038
0.687763,0.7029,0.719324,0.539984
0.687694,0.7029,0.719252,0.53993
0.687625,0.702899,0.71918,0.539876
0.687557,0.702898,0.719108,0.539822
0.687488,0.702897,0.719037,0.539768
0.687419,0.702896,0.718965,0.539714
0.68735,0.702895,0.718893,0.53966
0.687282,0.702895,0.718821,0.539606
0.687213,0.702894,0.718749,0.539552
0.687144,0.702893,0.718677,0.539498
0.687075,0.702892,0.718605,0.539444
0.687007,0.702891,0.718533,0.53939
0.686938,0.70289,0.718462,0.539336
0.686869,0.702889,0.71839,0.539283
0.686801,0.702889,0.718318,0.539229
0.686732,0.702888,0.718246,0.539175
0.686663,0.702887,0.718174,0.539121
0.686595,0.702886,0.718102,0.539067
0.686526,0.702885,0.718031,0.539013
0.686457,0.702884,0.717959,0.538959
0.686389,0.702884,0.717887,0.538905
0.68632,0.702883,0.717815,0.538851
0.686251,0.702882,0.717743,0.538797
0.686183,0.702881,0.717672,0.538744
0.686114,0.70288,0.7176,0.53869
0.686046,0.702879,0.717528,0.538636
0.685977,0.702879,0.717456,0.538582
0.685908,0.702878,0.717385,0.538528
0.68584,0.702877,0.717313,0.538474
0.685771,0.702876,0.717241,0.53842
0.685703,0.702875,0.717169,0.538367
0.685634,0.702874,0.717098,0.538313
0.685565,0.702874,0.717026,0.538259
0.685497,0.702873,0.716954,0.538205
0.685428,0.702872,0.716883,0.538151
0.68536,0.702871,0.716811,0.538097
0.685291,0.70287,0.716739,0.538044
0.685223,0.702869,0.716668,0.53799
0.685154,0.702868,0.716596,0.537936
0.685086,0.702868,0.716524,0.537882
0.685017,0.702867,0.716453,0.537828
0.684949,0.702866,0.716381,0.537775
0.68488,0.702865,0.716309,0.537721
0.684812,0.702864,0.716238,0.537667
0.684743,0.702863,0.716166,0.537613
0.684675,0.702863,0.716094,0.53756
0.684606,0.702862,0.716023,0.537506
