energy,productivity,fun,hunger
0.658961,0.658769,0.922141,0.641832
0.658895,0.658717,0.949711,0.641768
0.6585,0.658666,0.949616,0.641704
0.658105,0.658614,0.949521,0.64164
0.65771,0.658563,0.949426,0.641576
0.657315,0.658511,0.949331,0.641511
0.656921,0.65846,0.949236,0.641447
0.656527,0.658408,0.949141,0.641383
0.656133,0.658357,0.949046,0.641319
0.655739,0.658305,0.948951,0.641255
0.655346,0.658254,0.948856,0.641191
0.654953,0.658202,0.948761,0.641127
0.65456,0.658151,0.948667,0.641063
0.654167,0.658099,0.948572,0.640998
0.653775,0.658048,0.948477,0.640934
0.653382,0.657996,0.948382,0.64087
0.65299,0.657945,0.948287,0.640806
0.652599,0.657893,0.948192,0.640742
0.652207,0.657842,0.948098,0.640678
0.651816,0.65779,0.948003,0.640614
0.651425,0.657739,0.947908,0.64055
0.651034,0.657687,0.947813,0.640486
0.650643,0.657636,0.947718,0.640422
0.650253,0.657584,0.947624,0.640358
0.649863,0.657533,0.947529,0.640294
0.649473,0.657481,0.947434,0.64023
0.649083,0.65743,0.947339,0.640166
0.648694,0.657379,0.947245,0.640102
0.648305,0.657327,0.94715,0.640038
0.647916,0.657276,0.947055,0.639974
0.647527,0.657224,0.94696,0.63991
0.647139,0.657173,0.946866,0.639846
0.64675,0.657121,0.946771,0.639782
0.646362,0.65707,0.946676,0.639718
0.645975,0.657019,0.946582,0.639654
0.645587,0.656967,0.946487,0.63959
0.6452,0.656916,0.946392,0.639526
0.644813,0.656864,0.946298,0.639462
0.644426,0.656813,0.946203,0.639398
0.644039,0.656762,0.946108,0.639334
0.643653,0.65671,0.946014,0.63927
0.643267,0.656659,0.945919,0.639206
0.642881,0.656607,0.945825,0.639142
0.642495,0.656556,0.94573,0.639078
0.642109,0.656505,0.945636,0.639014
0.641724,0.656453,0.945541,0.63895
0.641339,0.656402,0.945446,0.638886
0.640954,0.656351,0.945352,0.638823
0.64057,0.656299,0.945257,0.638759
0.640186,0.656248,0.945163,0.638695
0.639802,0.656197,0.945068,0.638631
0.639418,0.656145,0.944974,0.638567
0.639034,0.656094,0.944879,0.638503
0.638651,0.656043,0.944785,0.638439
0.638268,0.655991,0.94469,0.638376
0.637885,0.65594,0.944596,0.638312
0.637502,0.655889,0.944501,0.638248
0.637119,0.655837,0.944407,0.638184
0.636737,0.655786,0.944313,0.63812
0.636355,0.655735,0.944218,0.638056
0.635973,0.655683,0.944124,0.637993
0.635592,0.655632,0.944029,0.637929
0.635211,0.655581,0.943935,0.637865
0.634829,0.655529,0.94384,0.637801
0.634449,0.655478,0.943746,0.637737
0.634068,0.655427,0.943652,0.637674
0.633688,0.655376,0.943557,0.63761
0.633307,0.655324,0.943463,0.637546
0.632927,0.655273,0.943369,0.637482
0.632548,0.655222,0.943274,0.637419
0.632168,0.65517,0.94318,0.637355
0.631789,0.655119,0.943086,0.637291
0.63141,0.655068,0.942991,0.637227
0.631031,0.655017,0.942897,0.637164
0.630968,0.654965,0.942803,0.6371
0.630905,0.654914,0.97099,0.637036
0.630526,0.654863,0.970893,0.636973
0.630148,0.654812,0.970796,0.636909
0.62977,0.654761,0.970698,0.636845
0.629392,0.654709,0.970601,0.636782
0.629015,0.654658,0.970504,0.636718
0.628637,0.654607,0.970407,0.636654
0.62826,0.654556,0.97031,0.636591
0.627883,0.654504,0.970213,0.636527
0.627506,0.654453,0.970116,0.636463
0.62713,0.654402,0.970019,0.6364
0.626754,0.654351,0.969922,0.636336
0.626378,0.6543,0.969825,0.636272
0.626002,0.654248,0.969728,0.636209
0.625626,0.654197,0.969631,0.636145
0.625251,0.654146,0.969534,0.636081
0.624876,0.654095,0.969437,0.636018
0.624501,0.654044,0.96934,0.635954
0.624126,0.653992,0.969243,0.635891
0.623752,0.653941,0.969146,0.635827
0.623378,0.65389,0.96905,0.635763
0.623004,0.653839,0.968953,0.6357
0.62263,0.653788,0.968856,0.635636
0.622256,0.653737,0.968759,0.635573
0.621883,0.653686,0.968662,0.635509
0.62151,0.653634,0.968565,0.635446
0.621137,0.653583,0.968468,0.635382
0.620764,0.653532,0.968371,0.635319
0.620392,0.653481,0.968275,0.635255
0.62002,0.65343,0.968178,0.635191
0.619648,0.653379,0.968081,0.635128
0.619276,0.653328,0.967984,0.635064
0.618904,0.653276,0.967887,0.635001
0.618533,0.653225,0.967791,0.634937
0.618162,0.653174,0.967694,0.634874
0.617791,0.653123,0.967597,0.63481
0.617421,0.653072,0.9675,0.634747
0.61705,0.653021,0.967404,0.634684
0.616988,0.65297,0.967307,0.63462
0.616927,0.652919,0.996226,0.634557
0.616557,0.652868,0.996127,0.634493
0.616187,0.652817,0.996027,0.63443
0.615817,0.652766,0.995928,0.634366
0.615448,0.652714,0.995828,0.634303
0.615078,0.652663,0.995728,0.634239
0.614709,0.652612,0.995629,0.634176
0.61434,0.652561,0.995529,0.634113
0.613972,0.65251,0.99543,0.634049
0.613604,0.652459,0.99533,0.633986
0.613235,0.652408,0.995231,0.633922
0.612868,0.652357,0.995131,0.633859
0.6125,0.652306,0.995032,0.633796
0.612132,0.652255,0.994932,0.633732
0.611765,0.652204,0.994833,0.633669
0.611398,0.652153,0.994733,0.633605
0.611031,0.652102,0.994634,0.633542
0.610665,0.652051,0.994534,0.633479
0.610298,0.652,0.994435,0.633415
0.610237,0.651949,0.994335,0.633352
0.610176,0.651898,1,0.633289
0.60981,0.651847,0.9999,0.633225
0.609444,0.651796,0.9998,0.633162
0.609079,0.651745,0.9997,0.633099
0.608713,0.651694,0.9996,0.633035
0.608348,0.651643,0.9995,0.632972
0.607983,0.651592,0.9994,0.632909
0.607618,0.651541,0.9993,0.632846
0.607254,0.65149,0.9992,0.632782
0.606889,0.651439,0.9991,0.632719
0.606525,0.651388,0.999,0.632656
0.606162,0.651337,0.998901,0.632592
0.605798,0.651286,0.998801,0.632529
0.605434,0.651235,0.998701,0.632466
0.605071,0.651184,0.998601,0.632403
0.605011,0.651133,0.998501,0.632339
0.60495,0.651082,1,0.632276
0.604587,0.651031,0.9999,0.632213
0.604224,0.65098,0.9998,0.63215
0.603862,0.650929,0.9997,0.632087
0.6035,0.650879,0.9996,0.632023
0.603138,0.650828,0.9995,0.63196
0.602776,0.650777,0.9994,0.631897
0.602414,0.650726,0.9993,0.631834
0.602053,0.650675,0.9992,0.631771
0.601692,0.650624,0.9991,0.631707
0.601331,0.650573,0.999,0.631644
0.60097,0.650522,0.998901,0.631581
0.600609,0.650471,0.998801,0.631518
0.600249,0.65042,0.998701,0.631455
0.599889,0.650369,0.998601,0.631392
0.599529,0.650319,0.998501,0.631328
0.599169,0.650268,0.998401,0.631265
0.59881,0.650217,0.998301,0.631202
0.59845,0.650166,0.998202,0.631139
0.598091,0.650115,0.998102,0.631076
0.597733,0.650064,0.998002,0.631013
0.597374,0.650013,0.997902,0.63095
0.597016,0.649962,0.997802,0.630887
0.596657,0.649912,0.997703,0.630824
0.596299,0.649861,0.997603,0.63076
0.595942,0.64981,0.997503,0.630697
0.595584,0.649759,0.997403,0.630634
0.595227,0.649708,0.997304,0.630571
0.59487,0.649657,0.997204,0.630508
0.594513,0.649607,0.997104,0.630445
0.594156,0.649556,0.997004,0.630382
0.5938,0.649505,0.996905,0.630319
0.593443,0.649454,0.996805,0.630256
0.593087,0.649403,0.996705,0.630193
0.592732,0.649352,0.996606,0.63013
0.592376,0.649302,0.996506,0.630067
0.592317,0.649251,0.996406,0.630004
0.592257,0.6492,1,0.629941
0.591902,0.649149,0.9999,0.629878
0.591547,0.649098,0.9998,0.629815
0.591192,0.649048,0.9997,0.629752
0.590837,0.648997,0.9996,0.629689
0.590483,0.648946,0.9995,0.629626
0.590129,0.648895,0.9994,0.629563
0.589775,0.648845,0.9993,0.6295
0.589421,0.648794,0.9992,0.629437
0.589067,0.648743,0.9991,0.629374
0.588714,0.648692,0.999,0.629311
0.588361,0.648642,0.998901,0.629248
0.588008,0.648591,0.998801,0.629185
0.587655,0.64854,0.998701,0.629123
0.587302,0.648489,0.998601,0.62906
0.58695,0.648439,0.998501,0.628997
0.586598,0.648388,0.998401,0.628934
0.586246,0.648337,0.998301,0.628871
0.585894,0.648286,0.998202,0.628808
0.585543,0.648236,0.998102,0.628745
0.585191,0.648185,0.998002,0.628682
0.58484,0.648134,0.997902,0.628619
0.584782,0.648084,0.997802,0.628557
0.584723,0.648033,1,0.628494
0.584373,0.647982,0.9999,0.628431
0.584022,0.647931,0.9998,0.628368
0.583672,0.647881,0.9997,0.628305
0.583321,0.64783,0.9996,0.628242
0.582971,0.647779,0.9995,0.62818
0.582622,0.647729,0.9994,0.628117
0.582272,0.647678,0.9993,0.628054
0.581923,0.647627,0.9992,0.627991
0.581574,0.647577,0.9991,0.627928
0.581225,0.647526,0.999,0.627865
0.580876,0.647475,0.998901,0.627803
0.580528,0.647425,0.998801,0.62774
0.580469,0.647374,0.998701,0.627677
0.580411,0.647323,1,0.627614
0.580063,0.647273,0.9999,0.627552
0.579715,0.647222,0.9998,0.627489
0.579367,0.647171,0.9997,0.627426
0.57902,0.647121,0.9996,0.627363
0.578672,0.64707,0.9995,0.627301
0.578325,0.64702,0.9994,0.627238
0.577978,0.646969,0.9993,0.627175
0.577632,0.646918,0.9992,0.627112
0.577285,0.646868,0.9991,0.62705
0.576939,0.646817,0.999,0.626987
0.576592,0.646766,0.998901,0.626924
0.576247,0.646716,0.998801,0.626862
0.575901,0.646665,0.998701,0.626799
0.575843,0.646615,0.998601,0.626736
0.575786,0.646564,1,0.626674
0.57544,0.646513,0.9999,0.626611
0.575095,0.646463,0.9998,0.626548
0.57475,0.646412,0.9997,0.626486
0.574405,0.646362,0.9996,0.626423
0.574061,0.646311,0.9995,0.62636
0.573716,0.646261,0.9994,0.626298
0.573372,0.64621,0.9993,0.626235
0.573028,0.646159,0.9992,0.626172
0.572684,0.646109,0.9991,0.62611
0.572341,0.646058,0.999,0.626047
0.571997,0.646008,0.998901,0.625985
0.571654,0.645957,0.998801,0.625922
0.571311,0.645907,0.998701,0.625859
0.570968,0.645856,0.998601,0.625797
0.570626,0.645806,0.998501,0.625734
0.570283,0.645755,0.998401,0.625672
0.569941,0.645705,0.998301,0.625609
0.569884,0.645654,0.998202,0.625547
0.569827,0.645604,1,0.625484
0.569485,0.645553,0.9999,0.625421
0.569144,0.645503,0.9998,0.625359
0.568802,0.645452,0.9997,0.625296
0.568461,0.645402,0.9996,0.625234
0.56812,0.645351,0.9995,0.625171
0.567779,0.645301,0.9994,0.625109
0.567438,0.64525,0.9993,0.625046
0.567098,0.6452,0.9992,0.624984
0.566758,0.645149,0.9991,0.624921
0.566418,0.645099,0.999,0.624859
0.566078,0.645048,0.998901,0.624796
0.565738,0.644998,0.998801,0.624734
0.565399,0.644947,0.998701,0.624671
0.56506,0.644897,0.998601,0.624609
0.564721,0.644846,0.998501,0.624546
0.564382,0.644796,0.998401,0.624484
0.564043,0.644745,0.998301,0.624422
0.563705,0.644695,0.998202,0.624359
0.563367,0.644645,0.998102,0.624297
0.563029,0.644594,0.998002,0.624234
0.562691,0.644544,0.997902,0.624172
0.562353,0.644493,0.997802,0.624109
0.562016,0.644443,0.997703,0.624047
0.561679,0.644392,0.997603,0.623985
0.561342,0.644342,0.997503,0.623922
0.561005,0.644292,0.997403,0.62386
0.560668,0.644241,0.997304,0.623797
0.560332,0.644191,0.997204,0.623735
0.559996,0.64414,0.997104,0.623673
0.55966,0.64409,0.997004,0.62361
0.559324,0.64404,0.996905,0.623548
0.558989,0.643989,0.996805,0.623486
0.558653,0.643939,0.996705,0.623423
0.558597,0.643888,0.996606,0.623361
0.558542,0.643838,1,0.623299
0.558206,0.643788,0.9999,0.623236
0.557872,0.643737,0.9998,0.623174
0.557537,0.643687,0.9997,0.623112
0.557202,0.643637,0.9996,0.623049
0.556868,0.643586,0.9995,0.622987
0.556534,0.643536,0.9994,0.622925
0.5562,0.643485,0.9993,0.622862
0.555866,0.643435,0.9992,0.6228
0.555533,0.643385,0.9991,0.622738
0.5552,0.643334,0.999,0.622676
0.554866,0.643284,0.998901,0.622613
0.554534,0.643234,0.998801,0.622551
0.554201,0.643183,0.998701,0.622489
0.553868,0.643133,0.998601,0.622426
0.553536,0.643083,0.998501,0.622364
0.553204,0.643032,0.998401,0.622302
0.552872,0.642982,0.998301,0.62224
0.55254,0.642932,0.998202,0.622178
0.552209,0.642882,0.998102,0.622115
0.551878,0.642831,0.998002,0.622053
0.551547,0.642781,0.997902,0.621991
0.551216,0.642731,0.997802,0.621929
0.551161,0.64268,0.997703,0.621867
0.551105,0.64263,1,0.621804
0.550775,0.64258,0.9999,0.621742
0.550444,0.64253,0.9998,0.62168
0.550114,0.642479,0.9997,0.621618
0.549784,0.642429,0.9996,0.621556
0.549454,0.642379,0.9995,0.621493
0.549125,0.642328,0.9994,0.621431
0.548795,0.642278,0.9993,0.621369
0.548466,0.642228,0.9992,0.621307
0.548137,0.642178,0.9991,0.621245
0.547808,0.642127,0.999,0.621183
0.547479,0.642077,0.998901,0.621121
0.547151,0.642027,0.998801,0.621059
0.546823,0.641977,0.998701,0.620996
0.546495,0.641927,0.998601,0.620934
0.546167,0.641876,0.998501,0.620872
0.545839,0.641826,0.998401,0.62081
0.545511,0.641776,0.998301,0.620748
0.545184,0.641726,0.998202,0.620686
0.544857,0.641675,0.998102,0.620624
0.54453,0.641625,0.998002,0.620562
0.544204,0.641575,0.997902,0.6205
0.543877,0.641525,0.997802,0.620438
0.543551,0.641475,0.997703,0.620376
0.543225,0.641424,0.997603,0.620314
0.542899,0.641374,0.997503,0.620252
0.542573,0.641324,0.997403,0.62019
0.542248,0.641274,0.997304,0.620128
0.541922,0.641224,0.997204,0.620066
0.541597,0.641174,0.997104,0.620004
0.541272,0.641123,0.997004,0.619942
0.540947,0.641073,0.996905,0.61988
0.540623,0.641023,0.996805,0.619818
0.540299,0.640973,0.996705,0.619756
0.539974,0.640923,0.996606,0.619694
0.53965,0.640873,0.996506,0.619632
0.539327,0.640822,0.996406,0.61957
0.539003,0.640772,0.996307,0.619508
0.53868,0.640722,0.996207,0.619446
0.538357,0.640672,0.996107,0.619384
0.538034,0.640622,0.996008,0.619322
0.53798,0.640572,0.995908,0.61926
0.537926,0.640522,1,0.619198
0.537603,0.640472,0.9999,0.619136
0.537281,0.640421,0.9998,0.619074
0.536958,0.640371,0.9997,0.619012
0.536636,0.640321,0.9996,0.61895
0.536314,0.640271,0.9995,0.618889
0.535992,0.640221,0.9994,0.618827
0.535671,0.640171,0.9993,0.618765
0.53535,0.640121,0.9992,0.618703
0.535028,0.640071,0.9991,0.618641
0.534707,0.640021,0.999,0.618579
0.534387,0.639971,0.998901,0.618517
0.534066,0.639921,0.998801,0.618455
0.533746,0.639871,0.998701,0.618394
0.533425,0.63982,0.998601,0.618332
0.533372,0.63977,0.998501,0.61827
0.533319,0.63972,1,0.618208
0.532999,0.63967,0.9999,0.618146
0.532679,0.63962,0.9998,0.618084
0.532359,0.63957,0.9997,0.618023
0.53204,0.63952,0.9996,0.617961
0.531721,0.63947,0.9995,0.617899
0.531402,0.63942,0.9994,0.617837
0.531083,0.63937,0.9993,0.617776
0.530764,0.63932,0.9992,0.617714
0.530446,0.63927,0.9991,0.617652
0.530128,0.63922,0.999,0.61759
0.52981,0.63917,0.998901,0.617528
0.529492,0.63912,0.998801,0.617467
0.529174,0.63907,0.998701,0.617405
0.528857,0.63902,0.998601,0.617343
0.528539,0.63897,0.998501,0.617281
0.528222,0.63892,0.998401,0.61722
0.527905,0.63887,0.998301,0.617158
0.527589,0.63882,0.998202,0.617096
0.527272,0.63877,0.998102,0.617035
0.526956,0.63872,0.998002,0.616973
0.52664,0.63867,0.997902,0.616911
0.526324,0.63862,0.997802,0.616849
0.526008,0.63857,0.997703,0.616788
0.525692,0.63852,0.997603,0.616726
0.525377,0.63847,0.997503,0.616664
0.525062,0.63842,0.997403,0.616603
0.524747,0.63837,0.997304,0.616541
0.524432,0.63832,0.997204,0.616479
0.524117,0.63827,0.997104,0.616418
0.523803,0.63822,0.997004,0.616356
0.523488,0.638171,0.996905,0.616295
0.523174,0.638121,0.996805,0.616233
0.522861,0.638071,0.996705,0.616171
0.522547,0.638021,0.996606,0.61611
0.522233,0.637971,0.996506,0.616048
0.52192,0.637921,0.996406,0.615986
0.521868,0.637871,0.996307,0.615925
0.521816,0.637821,1,0.615863
0.521503,0.637771,0.9999,0.615802
0.52119,0.637721,0.9998,0.61574
0.520877,0.637671,0.9997,0.615679
0.520565,0.637622,0.9996,0.615617
0.520252,0.637572,0.9995,0.615555
0.51994,0.637522,0.9994,0.615494
0.519628,0.637472,0.9993,0.615432
0.519316,0.637422,0.9992,0.615371
0.519005,0.637372,0.9991,0.615309
0.518693,0.637322,0.999,0.615248
0.518382,0.637272,0.998901,0.615186
0.518071,0.637223,0.998801,0.615125
0.518019,0.637173,0.998701,0.615063
0.517968,0.637123,1,0.615002
0.517657,0.637073,0.9999,0.61494
0.517346,0.637023,0.9998,0.614879
0.517036,0.636973,0.9997,0.614817
0.516726,0.636923,0.9996,0.614756
0.516416,0.636874,0.9995,0.614694
0.516106,0.636824,0.9994,0.614633
0.515796,0.636774,0.9993,0.614571
0.515487,0.636724,0.9992,0.61451
0.515178,0.636674,0.9991,0.614448
0.514868,0.636624,0.999,0.614387
0.51456,0.636575,0.998901,0.614325
0.514251,0.636525,0.998801,0.614264
0.513942,0.636475,0.998701,0.614203
0.513634,0.636425,0.998601,0.614141
0.513326,0.636375,0.998501,0.61408
0.513018,0.636326,0.998401,0.614018
0.51271,0.636276,0.998301,0.613957
0.512403,0.636226,0.998202,0.613896
0.512351,0.636176,0.998102,0.613834
0.5123,0.636127,1,0.613773
0.511993,0.636077,0.9999,0.613711
0.511686,0.636027,0.9998,0.61365
0.511379,0.635977,0.9997,0.613589
0.511072,0.635928,0.9996,0.613527
0.510765,0.635878,0.9995,0.613466
0.510459,0.635828,0.9994,0.613405
0.510152,0.635778,0.9993,0.613343
0.509846,0.635729,0.9992,0.613282
0.50954,0.635679,0.9991,0.613221
0.509235,0.635629,0.999,0.613159
0.508929,0.635579,0.998901,0.613098
0.508624,0.63553,0.998801,0.613037
0.508319,0.63548,0.998701,0.612975
0.508014,0.63543,0.998601,0.612914
0.507709,0.63538,0.998501,0.612853
0.507404,0.635331,0.998401,0.612791
0.5071,0.635281,0.998301,0.61273
0.506796,0.635231,0.998202,0.612669
0.506492,0.635182,0.998102,0.612608
0.506188,0.635132,0.998002,0.612546
0.505884,0.635082,0.997902,0.612485
0.505581,0.635033,0.997802,0.612424
0.505277,0.634983,0.997703,0.612363
0.504974,0.634933,0.997603,0.612301
0.504924,0.634883,0.997503,0.61224
0.504873,0.634834,1,0.612179
0.50457,0.634784,0.9999,0.612118
0.504268,0.634734,0.9998,0.612057
0.503965,0.634685,0.9997,0.611995
0.503663,0.634635,0.9996,0.611934
0.503361,0.634585,0.9995,0.611873
0.503059,0.634536,0.9994,0.611812
0.502757,0.634486,0.9993,0.611751
0.502455,0.634437,0.9992,0.611689
0.502154,0.634387,0.9991,0.611628
0.501852,0.634337,0.999,0.611567
0.501802,0.634288,0.998901,0.611506
0.501752,0.634238,1,0.611445
0.501451,0.634188,0.9999,0.611384
0.50115,0.634139,0.9998,0.611322
0.500849,0.634089,0.9997,0.611261
0.500549,0.63404,0.9996,0.6112
0.500249,0.63399,0.9995,0.611139
0.499949,0.63394,0.9994,0.611078
0.499649,0.633891,0.9993,0.611017
0.499349,0.633841,0.9992,0.610956
0.499049,0.633792,0.9991,0.610895
0.49875,0.633742,0.999,0.610834
0.498451,0.633692,0.998901,0.610773
0.498152,0.633643,0.998801,0.610711
0.497853,0.633593,0.998701,0.61065
0.497554,0.633544,0.998601,0.610589
0.497256,0.633494,0.998501,0.610528
0.496957,0.633444,0.998401,0.610467
0.496659,0.633395,0.998301,0.610406
0.496361,0.633345,0.998202,0.610345
0.496063,0.633296,0.998102,0.610284
0.495766,0.633246,0.998002,0.610223
0.495468,0.633197,0.997902,0.610162
0.495171,0.633147,0.997802,0.610101
0.494874,0.633098,0.997703,0.61004
0.494577,0.633048,0.997603,0.609979
0.49428,0.632999,0.997503,0.609918
0.493984,0.632949,0.997403,0.609857
0.493934,0.6329,0.997304,0.609796
0.493885,0.63285,1,0.609735
0.493589,0.6328,0.9999,0.609674
0.493293,0.632751,0.9998,0.609613
0.492997,0.632701,0.9997,0.609552
0.492701,0.632652,0.9996,0.609491
0.492405,0.632602,0.9995,0.60943
0.49211,0.632553,0.9994,0.609369
0.491815,0.632503,0.9993,0.609308
0.491519,0.632454,0.9992,0.609247
0.491225,0.632405,0.9991,0.609186
0.49093,0.632355,0.999,0.609126
0.490635,0.632306,0.998901,0.609065
0.490341,0.632256,0.998801,0.609004
0.490047,0.632207,0.998701,0.608943
0.489753,0.632157,0.998601,0.608882
0.489459,0.632108,0.998501,0.608821
0.489165,0.632058,0.998401,0.60876
0.488872,0.632009,0.998301,0.608699
0.488579,0.631959,0.998202,0.608638
0.488285,0.63191,0.998102,0.608578
0.487992,0.63186,0.998002,0.608517
0.4877,0.631811,0.997902,0.608456
0.487407,0.631762,0.997802,0.608395
0.487115,0.631712,0.997703,0.608334
0.487066,0.631663,0.997603,0.608273
0.487017,0.631613,1,0.608213
0.486725,0.631564,0.9999,0.608152
0.486433,0.631514,0.9998,0.608091
0.486141,0.631465,0.9997,0.60803
0.48585,0.631416,0.9996,0.607969
0.485558,0.631366,0.9995,0.607908
0.485267,0.631317,0.9994,0.607848
0.484976,0.631267,0.9993,0.607787
0.484685,0.631218,0.9992,0.607726
0.484394,0.631169,0.9991,0.607665
0.484103,0.631119,0.999,0.607605
0.483813,0.63107,0.998901,0.607544
0.483523,0.631021,0.998801,0.607483
0.483233,0.630971,0.998701,0.607422
0.483184,0.630922,0.998601,0.607362
0.483136,0.630872,1,0.607301
0.482846,0.630823,0.9999,0.60724
0.482556,0.630774,0.9998,0.607179
0.482267,0.630724,0.9997,0.607119
0.481977,0.630675,0.9996,0.607058
0.481688,0.630626,0.9995,0.606997
0.481399,0.630576,0.9994,0.606937
0.481111,0.630527,0.9993,0.606876
0.480822,0.630478,0.9992,0.606815
0.480533,0.630428,0.9991,0.606754
0.480245,0.630379,0.999,0.606694
0.479957,0.63033,0.998901,0.606633
0.479669,0.63028,0.998801,0.606572
0.479381,0.630231,0.998701,0.606512
0.479094,0.630182,0.998601,0.606451
0.478806,0.630132,0.998501,0.606391
0.478519,0.630083,0.998401,0.60633
0.478232,0.630034,0.998301,0.606269
0.477945,0.629985,0.998202,0.606209
0.477658,0.629935,0.998102,0.606148
0.477372,0.629886,0.998002,0.606087
0.477324,0.629837,0.997902,0.606027
0.477276,0.629787,1,0.605966
