energy,productivity,fun,hunger
0.86462,0.655147,0.674757,0.867548
0.864533,0.655115,0.674689,0.867462
0.864447,0.655082,0.674622,0.867375
0.86436,0.65505,0.674554,0.867288
0.864274,0.655018,0.674487,0.867201
0.864187,0.654985,0.674419,0.867115
0.864101,0.654953,0.674352,0.867028
0.864015,0.654921,0.674285,0.866941
0.863928,0.654889,0.674217,0.866855
0.863842,0.654856,0.67415,0.866768
0.863755,0.654824,0.674082,0.866681
0.863669,0.654792,0.674015,0.866595
0.863583,0.65476,0.673947,0.866508
0.863496,0.654727,0.67388,0.866421
0.86341,0.654695,0.673813,0.866335
0.863324,0.654663,0.673745,0.866248
0.863237,0.654631,0.673678,0.866161
0.863151,0.654598,0.673611,0.866075
0.863065,0.654566,0.673543,0.865988
0.862978,0.654534,0.673476,0.865902
0.862892,0.654502,0.673408,0.865815
0.862806,0.654469,0.673341,0.865728
0.862719,0.654437,0.673274,0.865642
0.862633,0.654405,0.673206,0.865555
0.862547,0.654373,0.673139,0.865469
0.862461,0.65434,0.673072,0.865382
0.862374,0.654308,0.673005,0.865296
0.862288,0.654276,0.672937,0.865209
0.862202,0.654244,0.67287,0.865123
0.862116,0.654211,0.672803,0.865036
0.862029,0.654179,0.672735,0.86495
0.861943,0.654147,0.672668,0.864863
0.861857,0.654115,0.672601,0.864777
0.861771,0.654082,0.672534,0.86469
0.861685,0.65405,0.672466,0.864604
0.861599,0.654018,0.672399,0.864517
0.861512,0.653986,0.672332,0.864431
0.861426,0.653954,0.672265,0.864344
0.86134,0.653921,0.672197,0.864258
0.861254,0.653889,0.67213,0.864171
0.861168,0.653857,0.672063,0.864085
0.861082,0.653825,0.671996,0.863999
0.860996,0.653793,0.671929,0.863912
0.860909,0.65376,0.671861,0.863826
0.860823,0.653728,0.671794,0.863739
0.860737,0.653696,0.671727,0.863653
0.860651,0.653664,0.67166,0.863567
0.860565,0.653631,0.671593,0.86348
0.860479,0.653599,0.671525,0.863394
0.860393,0.653567,0.671458,0.863308
0.860307,0.653535,0.671391,0.863221
0.860221,0.653503,0.671324,0.863135
0.860135,0.65347,0.671257,0.863049
0.860049,0.653438,0.67119,0.862962
0.859963,0.653406,0.671123,0.862876
0.859877,0.653374,0.671056,0.86279
0.859791,0.653342,0.670988,0.862703
0.859705,0.65331,0.670921,0.862617
0.859619,0.653277,0.670854,0.862531
0.859533,0.653245,0.670787,0.862445
0.859447,0.653213,0.67072,0.862358
0.859361,0.653181,0.670653,0.862272
0.859275,0.653149,0.670586,0.862186
0.859189,0.653116,0.670519,0.8621
0.859103,0.653084,0.670452,0.862014
0.859017,0.653052,0.670385,0.861927
0.858932,0.65302,0.670318,0.861841
0.858846,0.652988,0.670251,0.861755
0.85876,0.652956,0.670184,0.861669
0.858674,0.652923,0.670117,0.861583
0.858588,0.652891,0.67005,0.861496
0.858502,0.652859,0.669983,0.86141
0.858416,0.652827,0.669916,0.861324
0.858331,0.652795,0.669849,0.861238
0.858245,0.652763,0.669782,0.861152
0.858159,0.65273,0.669715,0.861066
0.858073,0.652698,0.669648,0.86098
0.857987,0.652666,0.669581,0.860894
0.857901,0.652634,0.669514,0.860808
0.857816,0.652602,0.669447,0.860721
0.85773,0.65257,0.66938,0.860635
0.857644,0.652537,0.669313,0.860549
0.857558,0.652505,0.669246,0.860463
0.857473,0.652473,0.669179,0.860377
0.857387,0.652441,0.669112,0.860291
0.857301,0.652409,0.669045,0.860205
0.857215,0.652377,0.668978,0.860119
0.85713,0.652345,0.668911,0.860033
0.857044,0.652312,0.668845,0.859947
0.856958,0.65228,0.668778,0.859861
0.856873,0.652248,0.668711,0.859775
0.856787,0.652216,0.668644,0.859689
0.856701,0.652184,0.668577,0.859603
0.856615,0.652152,0.66851,0.859517
0.85653,0.65212,0.668443,0.859431
0.856444,0.652088,0.668377,0.859345
0.856359,0.652055,0.66831,0.859259
0.856273,0.652023,0.668243,0.859173
0.856187,0.651991,0.668176,0.859088
0.856102,0.651959,0.668109,0.859002
0.856016,0.651927,0.668042,0.858916
0.85593,0.651895,0.667976,0.85883
0.855845,0.651863,0.667909,0.858744
0.855759,0.651831,0.667842,0.858658
0.855674,0.651798,0.667775,0.858572
0.855588,0.651766,0.667708,0.858486
0.855503,0.651734,0.667642,0.858401
0.855417,0.651702,0.667575,0.858315
0.855331,0.65167,0.667508,0.858229
0.855246,0.651638,0.667441,0.858143
0.85516,0.651606,0.667375,0.858057
0.855075,0.651574,0.667308,0.857971
0.854989,0.651542,0.667241,0.857886
0.854904,0.65151,0.667174,0.8578
0.854818,0.651477,0.667108,0.857714
0.854733,0.651445,0.667041,0.857628
0.854647,0.651413,0.666974,0.857542
0.854562,0.651381,0.666908,0.857457
0.854477,0.651349,0.666841,0.857371
0.854391,0.651317,0.666774,0.857285
0.854306,0.651285,0.666708,0.8572
0.85422,0.651253,0.666641,0.857114
0.854135,0.651221,0.666574,0.857028
0.854049,0.651189,0.666508,0.856942
0.853964,0.651157,0.666441,0.856857
0.853879,0.651124,0.666374,0.856771
0.853793,0.651092,0.666308,0.856685
0.853708,0.65106,0.666241,0.8566
0.853622,0.651028,0.666174,0.856514
0.853537,0.650996,0.666108,0.856428
0.853452,0.650964,0.666041,0.856343
0.853366,0.650932,0.665975,0.856257
0.853281,0.6509,0.665908,0.856171
0.853196,0.650868,0.665841,0.856086
0.85311,0.650836,0.665775,0.856
0.853025,0.650804,0.665708,0.855915
0.85294,0.650772,0.665642,0.855829
0.852854,0.65074,0.665575,0.855743
0.852769,0.650708,0.665509,0.855658
0.852684,0.650675,0.665442,0.855572
0.852599,0.650643,0.665375,0.855487
0.852513,0.650611,0.665309,0.855401
0.852428,0.650579,0.665242,0.855316
0.852343,0.650547,0.665176,0.85523
0.852258,0.650515,0.665109,0.855145
0.852172,0.650483,0.665043,0.855059
0.852087,0.650451,0.664976,0.854974
0.852002,0.650419,0.66491,0.854888
0.851917,0.650387,0.664843,0.854803
0.851832,0.650355,0.664777,0.854717
0.851746,0.650323,0.66471,0.854632
0.851661,0.650291,0.664644,0.854546
0.851576,0.650259,0.664577,0.854461
0.851491,0.650227,0.664511,0.854375
0.851406,0.650195,0.664445,0.85429
0.851321,0.650163,0.664378,0.854204
0.851235,0.650131,0.664312,0.854119
0.85115,0.650099,0.664245,0.854034
0.851065,0.650067,0.664179,0.853948
0.85098,0.650035,0.664112,0.853863
0.850895,0.650003,0.664046,0.853777
0.85081,0.649971,0.66398,0.853692
0.850725,0.649939,0.663913,0.853607
0.85064,0.649907,0.663847,0.853521
0.850555,0.649875,0.66378,0.853436
0.85047,0.649843,0.663714,0.853351
0.850385,0.649811,0.663648,0.853265
0.8503,0.649779,0.663581,0.85318
0.850215,0.649746,0.663515,0.853095
0.85013,0.649714,0.663449,0.853009
0.850045,0.649682,0.663382,0.852924
0.84996,0.64965,0.663316,0.852839
0.849875,0.649618,0.66325,0.852753
0.84979,0.649586,0.663183,0.852668
0.849705,0.649554,0.663117,0.852583
0.84962,0.649522,0.663051,0.852498
0.849535,0.64949,0.662984,0.852412
0.84945,0.649458,0.662918,0.852327
0.849365,0.649426,0.662852,0.852242
0.84928,0.649394,0.662785,0.852157
0.849195,0.649362,0.662719,0.852071
0.84911,0.64933,0.662653,0.851986
0.849025,0.649298,0.662587,0.851901
0.84894,0.649266,0.66252,0.851816
0.848855,0.649235,0.662454,0.851731
0.84877,0.649203,0.662388,0.851646
0.848685,0.649171,0.662322,0.85156
0.848601,0.649139,0.662255,0.851475
0.848516,0.649107,0.662189,0.85139
0.848431,0.649075,0.662123,0.851305
0.848346,0.649043,0.662057,0.85122
0.848261,0.649011,0.661991,0.851135
0.848176,0.648979,0.661924,0.85105
0.848092,0.648947,0.661858,0.850964
0.848007,0.648915,0.661792,0.850879
0.847922,0.648883,0.661726,0.850794
0.847837,0.648851,0.66166,0.850709
0.847752,0.648819,0.661593,0.850624
0.847668,0.648787,0.661527,0.850539
0.847583,0.648755,0.661461,0.850454
0.847498,0.648723,0.661395,0.850369
0.847413,0.648691,0.661329,0.850284
0.847329,0.648659,0.661263,0.850199
0.847244,0.648627,0.661197,0.850114
0.847159,0.648595,0.66113,0.850029
0.847074,0.648563,0.661064,0.849944
0.84699,0.648531,0.660998,0.849859
0.846905,0.648499,0.660932,0.849774
0.84682,0.648467,0.660866,0.849689
0.846736,0.648435,0.6608,0.849604
0.846651,0.648403,0.660734,0.849519
0.846566,0.648371,0.660668,0.849434
0.846482,0.648339,0.660602,0.849349
0.846397,0.648308,0.660536,0.849264
0.846312,0.648276,0.66047,0.849179
0.846228,0.648244,0.660404,0.849094
0.846143,0.648212,0.660338,0.849009
0.846059,0.64818,0.660271,0.848924
0.845974,0.648148,0.660205,0.84884
0.845889,0.648116,0.660139,0.848755
0.845805,0.648084,0.660073,0.84867
0.84572,0.648052,0.660007,0.848585
0.845636,0.64802,0.659941,0.8485
0.845551,0.647988,0.659875,0.848415
0.845466,0.647956,0.659809,0.84833
0.845382,0.647924,0.659743,0.848246
0.845297,0.647892,0.659677,0.848161
0.845213,0.647861,0.659612,0.848076
0.845128,0.647829,0.659546,0.847991
0.845044,0.647797,0.65948,0.847906
0.844959,0.647765,0.659414,0.847822
0.844875,0.647733,0.659348,0.847737
0.84479,0.647701,0.659282,0.847652
0.844706,0.647669,0.659216,0.847567
0.844621,0.647637,0.65915,0.847482
0.844537,0.647605,0.659084,0.847398
0.844452,0.647573,0.659018,0.847313
0.844368,0.647541,0.658952,0.847228
0.844284,0.64751,0.658886,0.847144
0.844199,0.647478,0.65882,0.847059
0.844115,0.647446,0.658755,0.846974
0.84403,0.647414,0.658689,0.846889
0.843946,0.647382,0.658623,0.846805
0.843861,0.64735,0.658557,0.84672
0.843777,0.647318,0.658491,0.846635
0.843693,0.647286,0.658425,0.846551
0.843608,0.647254,0.658359,0.846466
0.843524,0.647222,0.658294,0.846381
0.84344,0.647191,0.658228,0.846297
0.843355,0.647159,0.658162,0.846212
0.843271,0.647127,0.658096,0.846128
0.843187,0.647095,0.65803,0.846043
0.843102,0.647063,0.657964,0.845958
0.843018,0.647031,0.657899,0.845874
0.842934,0.646999,0.657833,0.845789
0.842849,0.646967,0.657767,0.845705
0.842765,0.646936,0.657701,0.84562
0.842681,0.646904,0.657636,0.845535
0.842597,0.646872,0.65757,0.845451
0.842512,0.64684,0.657504,0.845366
0.842428,0.646808,0.657438,0.845282
0.842344,0.646776,0.657373,0.845197
0.84226,0.646744,0.657307,0.845113
0.842175,0.646712,0.657241,0.845028
0.842091,0.646681,0.657175,0.844944
0.842007,0.646649,0.65711,0.844859
0.841923,0.646617,0.657044,0.844775
0.841839,0.646585,0.656978,0.84469
0.841754,0.646553,0.656912,0.844606
0.84167,0.646521,0.656847,0.844521
0.841586,0.646489,0.656781,0.844437
0.841502,0.646458,0.656715,0.844352
0.841418,0.646426,0.65665,0.844268
0.841334,0.646394,0.656584,0.844184
0.841249,0.646362,0.656518,0.844099
0.841165,0.64633,0.656453,0.844015
0.841081,0.646298,0.656387,0.84393
0.840997,0.646267,0.656322,0.843846
0.840913,0.646235,0.656256,0.843762
0.840829,0.646203,0.65619,0.843677
0.840745,0.646171,0.656125,0.843593
0.840661,0.646139,0.656059,0.843508
0.840577,0.646107,0.655993,0.843424
0.840493,0.646076,0.655928,0.84334
0.840409,0.646044,0.655862,0.843255
0.840325,0.646012,0.655797,0.843171
0.840241,0.64598,0.655731,0.843087
0.840156,0.645948,0.655665,0.843002
0.840072,0.645916,0.6556,0.842918
0.839988,0.645885,0.655534,0.842834
0.839904,0.645853,0.655469,0.84275
0.83982,0.645821,0.655403,0.842665
0.839736,0.645789,0.655338,0.842581
0.839653,0.645757,0.655272,0.842497
0.839569,0.645725,0.655207,0.842413
0.839485,0.645694,0.655141,0.842328
0.839401,0.645662,0.655076,0.842244
0.839317,0.64563,0.65501,0.84216
0.839233,0.645598,0.654945,0.842076
0.839149,0.645566,0.654879,0.841991
0.839065,0.645535,0.654814,0.841907
0.838981,0.645503,0.654748,0.841823
0.838897,0.645471,0.654683,0.841739
0.838813,0.645439,0.654617,0.841655
0.838729,0.645407,0.654552,0.841571
0.838645,0.645376,0.654486,0.841486
0.838562,0.645344,0.654421,0.841402
0.838478,0.645312,0.654355,0.841318
0.838394,0.64528,0.65429,0.841234
0.83831,0.645248,0.654225,0.84115
0.838226,0.645217,0.654159,0.841066
0.838142,0.645185,0.654094,0.840982
0.838059,0.645153,0.654028,0.840897
0.837975,0.645121,0.653963,0.840813
0.837891,0.64509,0.653897,0.840729
0.837807,0.645058,0.653832,0.840645
0.837723,0.645026,0.653767,0.840561
0.83764,0.644994,0.653701,0.840477
0.837556,0.644962,0.653636,0.840393
0.837472,0.644931,0.653571,0.840309
0.837388,0.644899,0.653505,0.840225
0.837305,0.644867,0.65344,0.840141
0.837221,0.644835,0.653375,0.840057
0.837137,0.644804,0.653309,0.839973
0.837053,0.644772,0.653244,0.839889
0.83697,0.64474,0.653179,0.839805
0.836886,0.644708,0.653113,0.839721
0.836802,0.644676,0.653048,0.839637
0.836719,0.644645,0.652983,0.839553
0.836635,0.644613,0.652917,0.839469
0.836551,0.644581,0.652852,0.839385
0.836468,0.644549,0.652787,0.839301
0.836384,0.644518,0.652721,0.839217
0.8363,0.644486,0.652656,0.839133
0.836217,0.644454,0.652591,0.839049
0.836133,0.644422,0.652526,0.838966
0.83605,0.644391,0.65246,0.838882
0.835966,0.644359,0.652395,0.838798
0.835882,0.644327,0.65233,0.838714
0.835799,0.644295,0.652265,0.83863
0.835715,0.644264,0.652199,0.838546
0.835632,0.644232,0.652134,0.838462
0.835548,0.6442,0.652069,0.838378
0.835465,0.644168,0.652004,0.838295
0.835381,0.644137,0.651939,0.838211
0.835297,0.644105,0.651873,0.838127
0.835214,0.644073,0.651808,0.838043
0.83513,0.644042,0.651743,0.837959
0.835047,0.64401,0.651678,0.837876
0.834963,0.643978,0.651613,0.837792
0.83488,0.643946,0.651548,0.837708
0.834796,0.643915,0.651482,0.837624
0.834713,0.643883,0.651417,0.83754
0.834629,0.643851,0.651352,0.837457
0.834546,0.643819,0.651287,0.837373
0.834463,0.643788,0.651222,0.837289
0.834379,0.643756,0.651157,0.837205
0.834296,0.643724,0.651092,0.837122
0.834212,0.643693,0.651027,0.837038
0.834129,0.643661,0.650961,0.836954
0.834045,0.643629,0.650896,0.836871
0.833962,0.643597,0.650831,0.836787
0.833879,0.643566,0.650766,0.836703
0.833795,0.643534,0.650701,0.83662
0.833712,0.643502,0.650636,0.836536
0.833628,0.643471,0.650571,0.836452
0.833545,0.643439,0.650506,0.836369
0.833462,0.643407,0.650441,0.836285
0.833378,0.643376,0.650376,0.836201
0.833295,0.643344,0.650311,0.836118
0.833212,0.643312,0.650246,0.836034
0.833128,0.64328,0.650181,0.835951
0.833045,0.643249,0.650116,0.835867
0.832962,0.643217,0.650051,0.835783
0.832878,0.643185,0.649986,0.8357
0.832795,0.643154,0.649921,0.835616
0.832712,0.643122,0.649856,0.835533
0.832629,0.64309,0.649791,0.835449
0.832545,0.643059,0.649726,0.835366
0.832462,0.643027,0.649661,0.835282
0.832379,0.642995,0.649596,0.835198
0.832296,0.642964,0.649531,0.835115
0.832212,0.642932,0.649466,0.835031
0.832129,0.6429,0.649401,0.834948
0.832046,0.642869,0.649336,0.834864
0.831963,0.642837,0.649271,0.834781
0.83188,0.642805,0.649206,0.834698
0.831796,0.642774,0.649141,0.834614
0.831713,0.642742,0.649076,0.834531
0.83163,0.64271,0.649011,0.834447
0.831547,0.642679,0.648946,0.834364
0.831464,0.642647,0.648882,0.83428
0.831381,0.642615,0.648817,0.834197
0.831297,0.642584,0.648752,0.834113
0.831214,0.642552,0.648687,0.83403
0.831131,0.64252,0.648622,0.833947
0.831048,0.642489,0.648557,0.833863
0.830965,0.642457,0.648492,0.83378
0.830882,0.642425,0.648427,0.833696
0.830799,0.642394,0.648363,0.833613
0.830716,0.642362,0.648298,0.83353
0.830633,0.64233,0.648233,0.833446
0.83055,0.642299,0.648168,0.833363
0.830466,0.642267,0.648103,0.83328
0.830383,0.642235,0.648039,0.833196
0.8303,0.642204,0.647974,0.833113
0.830217,0.642172,0.647909,0.83303
0.830134,0.642141,0.647844,0.832946
0.830051,0.642109,0.647779,0.832863
0.829968,0.642077,0.647715,0.83278
0.829885,0.642046,0.64765,0.832697
0.829802,0.642014,0.647585,0.832613
0.829719,0.641982,0.64752,0.83253
0.829636,0.641951,0.647456,0.832447
0.829553,0.641919,0.647391,0.832364
0.82947,0.641887,0.647326,0.83228
0.829388,0.641856,0.647261,0.832197
0.829305,0.641824,0.647197,0.832114
0.829222,0.641793,0.647132,0.832031
0.829139,0.641761,0.647067,0.831947
0.829056,0.641729,0.647002,0.831864
0.828973,0.641698,0.646938,0.831781
0.82889,0.641666,0.646873,0.831698
0.828807,0.641635,0.646808,0.831615
0.828724,0.641603,0.646744,0.831532
0.828641,0.641571,0.646679,0.831448
0.828559,0.64154,0.646614,0.831365
0.828476,0.641508,0.64655,0.831282
0.828393,0.641476,0.646485,0.831199
0.82831,0.641445,0.64642,0.831116
0.828227,0.641413,0.646356,0.831033
0.828144,0.641382,0.646291,0.83095
0.828062,0.64135,0.646226,0.830867
0.827979,0.641318,0.646162,0.830783
0.827896,0.641287,0.646097,0.8307
0.827813,0.641255,0.646033,0.830617
0.82773,0.641224,0.645968,0.830534
0.827648,0.641192,0.645903,0.830451
0.827565,0.641161,0.645839,0.830368
0.827482,0.641129,0.645774,0.830285
0.827399,0.641097,0.64571,0.830202
0.827317,0.641066,0.645645,0.830119
0.827234,0.641034,0.645581,0.830036
0.827151,0.641003,0.645516,0.829953
0.827068,0.640971,0.645451,0.82987
0.826986,0.640939,0.645387,0.829787
0.826903,0.640908,0.645322,0.829704
0.82682,0.640876,0.645258,0.829621
0.826738,0.640845,0.645193,0.829538
0.826655,0.640813,0.645129,0.829455
0.826572,0.640782,0.645064,0.829372
0.82649,0.64075,0.645,0.829289
0.826407,0.640718,0.644935,0.829206
0.826324,0.640687,0.644871,0.829123
0.826242,0.640655,0.644806,0.829041
0.826159,0.640624,0.644742,0.828958
0.826076,0.640592,0.644677,0.828875
0.825994,0.640561,0.644613,0.828792
0.825911,0.640529,0.644548,0.828709
0.825829,0.640498,0.644484,0.828626
0.825746,0.640466,0.644419,0.828543
0.825663,0.640434,0.644355,0.82846
0.825581,0.640403,0.644291,0.828378
0.825498,0.640371,0.644226,0.828295
0.825416,0.64034,0.644162,0.828212
0.825333,0.640308,0.644097,0.828129
0.825251,0.640277,0.644033,0.828046
0.825168,0.640245,0.643969,0.827963
0.825086,0.640214,0.643904,0.827881
0.825003,0.640182,0.64384,0.827798
0.824921,0.64015,0.643775,0.827715
0.824838,0.640119,0.643711,0.827632
0.824756,0.640087,0.643647,0.82755
0.824673,0.640056,0.643582,0.827467
0.824591,0.640024,0.643518,0.827384
0.824508,0.639993,0.643454,0.827301
0.824426,0.639961,0.643389,0.827219
0.824343,0.63993,0.643325,0.827136
0.824261,0.639898,0.64326,0.827053
0.824179,0.639867,0.643196,0.82697
0.824096,0.639835,0.643132,0.826888
0.824014,0.639804,0.643068,0.826805
0.823931,0.639772,0.643003,0.826722
0.823849,0.639741,0.642939,0.82664
0.823767,0.639709,0.642875,0.826557
0.823684,0.639678,0.64281,0.826474
0.823602,0.639646,0.642746,0.826392
0.823519,0.639615,0.642682,0.826309
0.823437,0.639583,0.642618,0.826226
0.823355,0.639552,0.642553,0.826144
0.823272,0.63952,0.642489,0.826061
0.82319,0.639489,0.642425,0.825979
0.823108,0.639457,0.642361,0.825896
0.823025,0.639425,0.642296,0.825813
0.822943,0.639394,0.642232,0.825731
0.822861,0.639362,0.642168,0.825648
0.822779,0.639331,0.642104,0.825566
0.822696,0.639299,0.642039,0.825483
0.822614,0.639268,0.641975,0.825401
0.822532,0.639236,0.641911,0.825318
0.82245,0.639205,0.641847,0.825236
0.822367,0.639174,0.641783,0.825153
0.822285,0.639142,0.641718,0.82507
0.822203,0.639111,0.641654,0.824988
0.822121,0.639079,0.64159,0.824905
0.822038,0.639048,0.641526,0.824823
0.821956,0.639016,0.641462,0.82474
0.821874,0.638985,0.641398,0.824658
0.821792,0.638953,0.641334,0.824576
0.82171,0.638922,0.641269,0.824493
0.821627,0.63889,0.641205,0.824411
0.821545,0.638859,0.641141,0.824328
0.821463,0.638827,0.641077,0.824246
0.821381,0.638796,0.641013,0.824163
0.821299,0.638764,0.640949,0.824081
0.821217,0.638733,0.640885,0.823999
0.821135,0.638701,0.640821,0.823916
0.821052,0.63867,0.640757,0.823834
0.82097,0.638638,0.640692,0.823751
0.820888,0.638607,0.640628,0.823669
0.820806,0.638575,0.640564,0.823587
0.820724,0.638544,0.6405,0.823504
0.820642,0.638513,0.640436,0.823422
0.82056,0.638481,0.640372,0.82334
0.820478,0.63845,0.640308,0.823257
0.820396,0.638418,0.640244,0.823175
0.820314,0.638387,0.64018,0.823093
0.820232,0.638355,0.640116,0.82301
0.82015,0.638324,0.640052,0.822928
0.820068,0.638292,0.639988,0.822846
0.819986,0.638261,0.639924,0.822763
0.819904,0.638229,0.63986,0.822681
0.819822,0.638198,0.639796,0.822599
0.81974,0.638167,0.639732,0.822517
0.819658,0.638135,0.639668,0.822434
0.819576,0.638104,0.639604,0.822352
0.819494,0.638072,0.63954,0.82227
0.819412,0.638041,0.639476,0.822188
0.81933,0.638009,0.639412,0.822105
0.819248,0.637978,0.639348,0.822023
0.819166,0.637947,0.639284,0.821941
0.819084,0.637915,0.63922,0.821859
0.819002,0.637884,0.639157,0.821777
0.81892,0.637852,0.639093,0.821694
0.818839,0.637821,0.639029,0.821612
0.818757,0.637789,0.638965,0.82153
0.818675,0.637758,0.638901,0.821448
0.818593,0.637727,0.638837,0.821366
0.818511,0.637695,0.638773,0.821284
0.818429,0.637664,0.638709,0.821202
0.818347,0.637632,0.638645,0.821119
0.818265,0.637601,0.638582,0.821037
0.818184,0.637569,0.638518,0.820955
0.818102,0.637538,0.638454,0.820873
0.81802,0.637507,0.63839,0.820791
0.817938,0.637475,0.638326,0.820709
0.817856,0.637444,0.638262,0.820627
0.817775,0.637412,0.638199,0.820545
0.817693,0.637381,0.638135,0.820463
0.817611,0.63735,0.638071,0.820381
0.817529,0.637318,0.638007,0.820299
