energy,productivity,fun,hunger
0.700094,0.6597,0.728536,0.724459
0.700024,0.659617,0.728463,0.724387
0.699604,0.659534,0.72839,0.724314
0.699185,0.659451,0.728318,0.724242
0.698765,0.659369,0.728245,0.724169
0.698346,0.659286,0.728172,0.724097
0.697927,0.659203,0.728099,0.724025
0.697508,0.65912,0.728026,0.723952
0.69709,0.659037,0.727953,0.72388
0.696672,0.658954,0.727881,0.723807
0.696254,0.658872,0.727808,0.723735
0.695836,0.658789,0.727735,0.723663
0.695418,0.658706,0.727662,0.72359
0.695001,0.658623,0.72759,0.723518
0.694584,0.65854,0.727517,0.723446
0.694168,0.658458,0.727444,0.723373
0.693751,0.658375,0.727371,0.723301
0.693335,0.658292,0.727299,0.723229
0.692919,0.658209,0.727226,0.723156
0.692503,0.658127,0.727153,0.723084
0.692088,0.658044,0.72708,0.723012
0.691672,0.657961,0.727008,0.722939
0.691258,0.657879,0.726935,0.722867
0.690843,0.657796,0.726862,0.722795
0.690428,0.657713,0.72679,0.722722
0.690014,0.657631,0.726717,0.72265
0.6896,0.657548,0.726644,0.722578
0.689186,0.657465,0.726572,0.722506
0.688773,0.657383,0.726499,0.722433
0.68836,0.6573,0.726426,0.722361
0.687947,0.657218,0.726354,0.722289
0.687534,0.657135,0.726281,0.722217
0.687121,0.657052,0.726208,0.722144
0.686709,0.65697,0.726136,0.722072
0.686297,0.656887,0.726063,0.722
0.685886,0.656805,0.725991,0.721928
0.685474,0.656722,0.725918,0.721856
0.685063,0.65664,0.725845,0.721783
0.684652,0.656557,0.725773,0.721711
0.684241,0.656475,0.7257,0.721639
0.683831,0.656392,0.725628,0.721567
0.68342,0.65631,0.725555,0.721495
0.68301,0.656227,0.725482,0.721423
0.6826,0.656145,0.72541,0.72135
0.682191,0.656062,0.725337,0.721278
0.681782,0.65598,0.725265,0.721206
0.681373,0.655897,0.725192,0.721134
0.680964,0.655815,0.72512,0.721062
0.680555,0.655732,0.725047,0.72099
0.680147,0.65565,0.724975,0.720918
0.679739,0.655568,0.724902,0.720846
0.679331,0.655485,0.72483,0.720774
0.678924,0.655403,0.724757,0.720702
0.678516,0.655321,0.724685,0.720629
0.678109,0.655238,0.724612,0.720557
0.677702,0.655156,0.72454,0.720485
0.677296,0.655074,0.724467,0.720413
0.676889,0.654991,0.724395,0.720341
0.676483,0.654909,0.724323,0.720269
0.676077,0.654827,0.72425,0.720197
0.675672,0.654744,0.724178,0.720125
0.675266,0.654662,0.724105,0.720053
0.674861,0.65458,0.724033,0.719981
0.674456,0.654498,0.72396,0.719909
0.673715,0.65507,0.72244,0.719837
0.672974,0.655642,0.720923,0.719765
0.672233,0.656216,0.71941,0.719693
0.671494,0.656789,0.717899,0.719621
0.670755,0.657363,0.716391,0.719549
0.670018,0.657938,0.714887,0.719477
0.669281,0.658513,0.713386,0.719405
0.668545,0.659089,0.711888,0.719333
0.667809,0.659665,0.710393,0.719261
0.667075,0.660242,0.708902,0.71919
0.666341,0.660819,0.707413,0.719118
0.665608,0.661397,0.705928,0.719046
0.664876,0.661975,0.704445,0.718974
0.664145,0.662554,0.702966,0.718902
0.663414,0.663133,0.70149,0.71883
0.662684,0.663712,0.700017,0.718758
0.661956,0.664293,0.698547,0.718686
0.661228,0.664873,0.69708,0.718614
0.6605,0.665455,0.695617,0.718543
0.659774,0.666036,0.694156,0.718471
0.659048,0.666619,0.692698,0.718399
0.658323,0.667201,0.691244,0.718327
0.657599,0.667785,0.689792,0.718255
0.656876,0.668368,0.688344,0.718183
0.656153,0.668953,0.686899,0.718112
0.655432,0.669538,0.685456,0.71804
0.654711,0.670123,0.684017,0.717968
0.653991,0.670709,0.682581,0.717896
0.653271,0.671295,0.681147,0.717824
0.652553,0.671882,0.679717,0.717753
0.651835,0.672469,0.67829,0.717681
0.651118,0.673057,0.676866,0.717609
0.650402,0.673646,0.675444,0.717537
0.649686,0.674234,0.674026,0.717465
0.648972,0.674824,0.672611,0.717394
0.648258,0.675414,0.671198,0.717322
0.647545,0.676004,0.669789,0.71725
0.646833,0.676595,0.668382,0.717179
0.646121,0.677187,0.666979,0.717107
0.645411,0.677779,0.665578,0.717035
0.644701,0.678371,0.664181,0.716963
0.643992,0.678964,0.662786,0.716892
0.643283,0.679558,0.661395,0.71682
0.642576,0.680152,0.660006,0.716748
0.641869,0.680746,0.65862,0.716677
0.641163,0.681342,0.657237,0.716605
0.640458,0.681937,0.655857,0.716533
0.639753,0.682533,0.65448,0.716462
0.63905,0.68313,0.653105,0.71639
0.638347,0.683727,0.651734,0.716318
0.637645,0.684325,0.650365,0.716247
0.636943,0.684923,0.649,0.716175
0.636243,0.685522,0.647637,0.716104
0.635543,0.686121,0.646277,0.716032
0.634844,0.686721,0.64492,0.71596
0.634146,0.687321,0.643566,0.715889
0.633448,0.687922,0.642215,0.715817
0.632752,0.688524,0.640866,0.715746
0.632056,0.689126,0.63952,0.715674
0.63136,0.689728,0.638177,0.715602
0.630666,0.690331,0.636837,0.715531
0.629972,0.690934,0.6355,0.715459
0.629279,0.691538,0.634166,0.715388
0.628587,0.692143,0.632834,0.715316
0.627896,0.692748,0.631505,0.715245
0.627205,0.693354,0.630179,0.715173
0.626515,0.69396,0.628856,0.715102
0.625826,0.694566,0.627536,0.71503
0.625138,0.695174,0.626218,0.714959
0.62445,0.695781,0.624903,0.714887
0.623763,0.69639,0.623591,0.714816
0.623077,0.696998,0.622281,0.714744
0.622392,0.697608,0.620975,0.714673
0.621707,0.698218,0.619671,0.714601
0.621024,0.698828,0.61837,0.71453
0.620341,0.699439,0.617071,0.714458
0.619658,0.70005,0.615775,0.714387
0.618977,0.700662,0.614482,0.714315
0.618296,0.701275,0.613192,0.714244
0.617616,0.701888,0.611904,0.714173
0.616937,0.702502,0.61062,0.714101
0.616258,0.703116,0.609337,0.71403
0.61558,0.70373,0.608058,0.713958
0.614903,0.704346,0.606781,0.713887
0.614227,0.704961,0.605507,0.713816
0.613551,0.705578,0.604236,0.713744
0.612876,0.706194,0.602967,0.713673
0.612202,0.706812,0.601701,0.713601
0.611529,0.70743,0.600437,0.71353
0.610856,0.708048,0.599176,0.713459
0.610184,0.708667,0.597918,0.713387
0.609513,0.709287,0.596663,0.713316
0.608843,0.709907,0.59541,0.713245
0.608173,0.710527,0.59416,0.713173
0.607504,0.711148,0.592912,0.713102
0.606836,0.71177,0.591667,0.713031
0.606169,0.712392,0.590425,0.712959
0.605502,0.713015,0.589185,0.712888
0.604836,0.713638,0.587948,0.712817
0.604171,0.714262,0.586713,0.712746
0.603506,0.714887,0.585481,0.712674
0.602842,0.715512,0.584252,0.712603
0.602179,0.716137,0.583025,0.712532
0.601517,0.716763,0.581801,0.712461
0.600855,0.71739,0.580579,0.712389
0.600194,0.718017,0.57936,0.712318
0.599534,0.718645,0.578143,0.712247
0.598875,0.719273,0.576929,0.712176
0.598216,0.719902,0.575718,0.712104
0.597558,0.720531,0.574509,0.712033
0.596901,0.721161,0.573303,0.711962
0.596244,0.721791,0.572099,0.711891
0.595588,0.722422,0.570898,0.71182
0.594933,0.723054,0.569699,0.711748
0.594279,0.723686,0.568503,0.711677
0.593625,0.724319,0.567309,0.711606
0.592972,0.724952,0.566118,0.711535
0.59232,0.725586,0.564929,0.711464
0.591669,0.72622,0.563743,0.711393
0.591018,0.726855,0.562559,0.711321
0.590368,0.72749,0.561378,0.71125
0.589719,0.728126,0.560199,0.711179
0.58907,0.728763,0.559023,0.711108
0.588422,0.7294,0.557849,0.711037
0.587775,0.730038,0.556677,0.710966
0.587128,0.730676,0.555508,0.710895
0.586483,0.731314,0.554342,0.710824
0.585837,0.731954,0.553178,0.710753
0.585193,0.732594,0.552016,0.710681
0.584549,0.733234,0.550857,0.71061
0.583907,0.733875,0.549701,0.710539
0.583264,0.734517,0.548546,0.710468
0.582623,0.735159,0.547395,0.710397
0.581982,0.735801,0.546245,0.710326
0.581342,0.736445,0.545098,0.710255
0.580702,0.737089,0.543954,0.710184
0.580064,0.737733,0.542811,0.710113
0.579426,0.738378,0.541672,0.710042
0.578788,0.739023,0.540534,0.709971
0.578152,0.739669,0.539399,0.7099
0.577516,0.740316,0.538266,0.709829
0.576881,0.740963,0.537136,0.709758
0.576246,0.741611,0.536008,0.709687
0.575612,0.742259,0.534883,0.709616
0.574979,0.742908,0.53376,0.709545
0.574347,0.743558,0.532639,0.709474
0.573715,0.744208,0.53152,0.709403
0.573084,0.744858,0.530404,0.709332
0.572454,0.745509,0.529291,0.709261
0.571824,0.746161,0.528179,0.709191
0.571195,0.746813,0.52707,0.70912
0.570567,0.747466,0.525963,0.709049
0.569939,0.74812,0.524859,0.708978
0.569882,0.748026,0.524807,0.708907
0.569825,0.747932,0.540497,0.708836
0.569483,0.747838,0.556656,0.708765
0.569142,0.747744,0.573298,0.708694
0.5688,0.74765,0.590438,0.708623
0.568459,0.747556,0.60809,0.708553
0.568118,0.747462,0.626271,0.708482
0.567777,0.747368,0.644994,0.708411
0.567437,0.747274,0.664278,0.70834
0.567096,0.74718,0.684137,0.708269
0.566756,0.747086,0.704591,0.708198
0.566416,0.746992,0.725656,0.708128
0.566076,0.746898,0.725584,0.708057
0.565736,0.746805,0.725511,0.707986
0.565397,0.746711,0.725439,0.707915
0.565058,0.746617,0.725366,0.707844
0.564719,0.746523,0.725293,0.707774
0.56438,0.746429,0.725221,0.707703
0.564041,0.746335,0.725148,0.707632
0.563703,0.746242,0.725076,0.707561
0.563365,0.746148,0.725003,0.70749
0.563027,0.746054,0.724931,0.70742
0.562689,0.74596,0.724858,0.707349
0.562351,0.745867,0.724786,0.707278
0.562014,0.745773,0.724713,0.707208
0.561958,0.745679,0.724641,0.707137
0.561902,0.745585,0.724569,0.707066
0.561845,0.745492,0.724496,0.706995
0.561789,0.745398,0.724424,0.706925
0.561733,0.745304,0.724351,0.706854
0.561677,0.745211,0.724279,0.706783
0.561621,0.745117,0.724206,0.706713
0.561565,0.745023,0.724134,0.706642
0.561508,0.74493,0.724061,0.706571
0.561452,0.744836,0.723989,0.706501
0.561396,0.744743,0.723917,0.70643
0.56134,0.744649,0.723844,0.706359
0.561284,0.744555,0.723772,0.706289
0.561228,0.744462,0.7237,0.706218
0.561172,0.744368,0.723627,0.706147
0.561115,0.744275,0.723555,0.706077
0.561059,0.744181,0.723482,0.706006
0.561003,0.744088,0.72341,0.705936
0.560947,0.743994,0.723338,0.705865
0.560891,0.743901,0.723265,0.705794
0.560835,0.743807,0.723193,0.705724
0.560779,0.743714,0.723121,0.705653
0.560723,0.74362,0.723048,0.705583
0.560667,0.743527,0.722976,0.705512
0.560611,0.743433,0.722904,0.705442
0.560555,0.74334,0.722832,0.705371
0.560499,0.743247,0.722759,0.705301
0.560442,0.743153,0.722687,0.70523
0.560386,0.74306,0.722615,0.705159
0.56033,0.742966,0.722542,0.705089
0.560274,0.742873,0.72247,0.705018
0.560218,0.74278,0.722398,0.704948
0.560162,0.742686,0.722326,0.704877
0.560106,0.742593,0.722254,0.704807
0.56005,0.7425,0.722181,0.704736
0.559994,0.742406,0.722109,0.704666
0.559938,0.742313,0.722037,0.704596
0.559882,0.74222,0.721965,0.704525
0.559826,0.742127,0.721892,0.704455
0.55977,0.742033,0.72182,0.704384
0.559714,0.74194,0.721748,0.704314
0.559658,0.741847,0.721676,0.704243
0.559602,0.741754,0.721604,0.704173
0.559546,0.74166,0.721532,0.704102
0.559491,0.741567,0.721459,0.704032
0.559435,0.741474,0.721387,0.703962
0.559379,0.741381,0.721315,0.703891
0.559323,0.741288,0.721243,0.703821
0.559267,0.741194,0.721171,0.70375
0.559211,0.741101,0.721099,0.70368
0.559155,0.741008,0.721027,0.70361
0.559099,0.740915,0.720955,0.703539
0.559043,0.740822,0.720882,0.703469
0.558987,0.740729,0.72081,0.703399
0.558931,0.740636,0.720738,0.703328
0.558875,0.740543,0.720666,0.703258
0.558819,0.74045,0.720594,0.703188
0.558764,0.740357,0.720522,0.703117
0.558708,0.740264,0.72045,0.703047
0.558652,0.740171,0.720378,0.702977
0.558596,0.740078,0.720306,0.702906
0.55854,0.739985,0.720234,0.702836
0.558484,0.739892,0.720162,0.702766
0.558428,0.739799,0.72009,0.702696
0.558373,0.739706,0.720018,0.702625
0.558317,0.739613,0.719946,0.702555
0.558261,0.73952,0.719874,0.702485
0.558205,0.739427,0.719802,0.702415
0.558149,0.739334,0.71973,0.702344
0.558093,0.739241,0.719658,0.702274
0.558038,0.739148,0.719586,0.702204
0.557982,0.739055,0.719514,0.702134
0.557926,0.738962,0.719442,0.702063
0.55787,0.738869,0.71937,0.701993
0.557814,0.738777,0.719298,0.701923
0.557759,0.738684,0.719226,0.701853
0.557703,0.738591,0.719154,0.701783
0.557647,0.738498,0.719082,0.701712
0.557591,0.738405,0.719011,0.701642
0.557536,0.738312,0.718939,0.701572
0.55748,0.73822,0.718867,0.701502
0.557424,0.738127,0.718795,0.701432
0.557368,0.738034,0.718723,0.701362
0.557313,0.737941,0.718651,0.701292
0.557257,0.737849,0.718579,0.701221
0.557201,0.737756,0.718507,0.701151
0.557145,0.737663,0.718435,0.701081
0.55709,0.737571,0.718364,0.701011
0.557034,0.737478,0.718292,0.700941
0.556978,0.737385,0.71822,0.700871
0.556923,0.737292,0.718148,0.700801
0.556867,0.7372,0.718076,0.700731
0.556811,0.737107,0.718005,0.700661
0.556756,0.737015,0.717933,0.700591
0.5567,0.736922,0.717861,0.700521
0.556644,0.736829,0.717789,0.70045
0.556589,0.736737,0.717717,0.70038
0.556533,0.736644,0.717646,0.70031
0.556477,0.736552,0.717574,0.70024
0.556422,0.736459,0.717502,0.70017
0.556366,0.736366,0.71743,0.7001
0.55631,0.736274,0.717359,0.70003
0.556255,0.736181,0.717287,0.69996
0.556199,0.736089,0.717215,0.69989
0.556143,0.735996,0.717143,0.69982
0.556088,0.735904,0.717072,0.69975
0.556032,0.735811,0.717,0.69968
0.555977,0.735719,0.716928,0.69961
0.555921,0.735626,0.716857,0.69954
0.555865,0.735534,0.716785,0.69947
0.55581,0.735442,0.716713,0.699401
0.555754,0.735349,0.716642,0.699331
0.555699,0.735257,0.71657,0.699261
0.555643,0.735164,0.716498,0.699191
0.555588,0.735072,0.716427,0.699121
0.555532,0.73498,0.716355,0.699051
0.555476,0.734887,0.716283,0.698981
0.555421,0.734795,0.716212,0.698911
0.555365,0.734703,0.71614,0.698841
0.55531,0.73461,0.716068,0.698771
0.555254,0.734518,0.715997,0.698701
0.555199,0.734426,0.715925,0.698632
0.555143,0.734333,0.715854,0.698562
0.555088,0.734241,0.715782,0.698492
0.555032,0.734149,0.71571,0.698422
0.554977,0.734057,0.715639,0.698352
0.554921,0.733964,0.715567,0.698282
0.554866,0.733872,0.715496,0.698212
0.55481,0.73378,0.715424,0.698143
0.554755,0.733688,0.715353,0.698073
0.554699,0.733595,0.715281,0.698003
0.554644,0.733503,0.71521,0.697933
0.554588,0.733411,0.715138,0.697863
0.554533,0.733319,0.715067,0.697794
0.554477,0.733227,0.714995,0.697724
0.554422,0.733135,0.714924,0.697654
0.554367,0.733042,0.714852,0.697584
0.554311,0.73295,0.714781,0.697515
0.554256,0.732858,0.714709,0.697445
0.5542,0.732766,0.714638,0.697375
0.554145,0.732674,0.714566,0.697305
0.554089,0.732582,0.714495,0.697236
0.554034,0.73249,0.714423,0.697166
0.553979,0.732398,0.714352,0.697096
0.553923,0.732306,0.71428,0.697026
0.553868,0.732214,0.714209,0.696957
0.553812,0.732122,0.714138,0.696887
0.553757,0.73203,0.714066,0.696817
0.553702,0.731938,0.713995,0.696748
0.553646,0.731846,0.713923,0.696678
0.553591,0.731754,0.713852,0.696608
0.553536,0.731662,0.713781,0.696539
0.55348,0.73157,0.713709,0.696469
0.553425,0.731478,0.713638,0.696399
0.55337,0.731386,0.713566,0.69633
0.553314,0.731294,0.713495,0.69626
0.553259,0.731202,0.713424,0.696191
0.553204,0.73111,0.713352,0.696121
0.553148,0.731018,0.713281,0.696051
0.553093,0.730927,0.71321,0.695982
0.553038,0.730835,0.713138,0.695912
0.552982,0.730743,0.713067,0.695842
0.552927,0.730651,0.712996,0.695773
0.552872,0.730559,0.712925,0.695703
0.552816,0.730467,0.712853,0.695634
0.552761,0.730376,0.712782,0.695564
0.552706,0.730284,0.712711,0.695495
0.552651,0.730192,0.712639,0.695425
0.552595,0.7301,0.712568,0.695356
0.55254,0.730009,0.712497,0.695286
0.552485,0.729917,0.712426,0.695216
0.55243,0.729825,0.712354,0.695147
0.552374,0.729733,0.712283,0.695077
0.552319,0.729642,0.712212,0.695008
0.552264,0.72955,0.712141,0.694938
0.552209,0.729458,0.712069,0.694869
0.552153,0.729367,0.711998,0.694799
0.552098,0.729275,0.711927,0.69473
0.552043,0.729183,0.711856,0.69466
0.551988,0.729092,0.711785,0.694591
0.551933,0.729,0.711714,0.694522
0.551877,0.728908,0.711642,0.694452
0.551822,0.728817,0.711571,0.694383
0.551767,0.728725,0.7115,0.694313
0.551712,0.728634,0.711429,0.694244
0.551657,0.728542,0.711358,0.694174
0.551601,0.728451,0.711287,0.694105
0.551546,0.728359,0.711215,0.694036
0.551491,0.728268,0.711144,0.693966
0.551436,0.728176,0.711073,0.693897
0.551381,0.728085,0.711002,0.693827
0.551326,0.727993,0.710931,0.693758
0.551271,0.727902,0.71086,0.693689
0.551215,0.72781,0.710789,0.693619
0.55116,0.727719,0.710718,0.69355
0.551105,0.727627,0.710647,0.693481
0.55105,0.727536,0.710576,0.693411
0.550995,0.727444,0.710505,0.693342
0.55094,0.727353,0.710434,0.693272
0.550885,0.727261,0.710362,0.693203
0.55083,0.72717,0.7316,0.693134
0.550499,0.727079,0.731527,0.693065
0.550169,0.726987,0.731454,0.692995
0.549839,0.726896,0.731381,0.692926
0.549509,0.726805,0.731308,0.692857
0.549179,0.726713,0.731234,0.692787
0.54885,0.726622,0.731161,0.692718
0.548521,0.726531,0.731088,0.692649
0.548192,0.726439,0.731015,0.69258
0.547863,0.726348,0.730942,0.69251
0.547534,0.726257,0.730869,0.692441
0.547205,0.726165,0.730796,0.692372
0.546877,0.726074,0.730723,0.692303
0.546549,0.725983,0.73065,0.692233
0.546221,0.725892,0.730577,0.692164
0.545893,0.725801,0.730504,0.692095
0.545566,0.725709,0.73043,0.692026
0.545239,0.725618,0.730357,0.691956
0.544912,0.725527,0.730284,0.691887
0.544585,0.725436,0.730211,0.691818
0.544258,0.725345,0.730138,0.691749
0.543931,0.725253,0.730065,0.69168
0.543605,0.725162,0.729992,0.691611
0.543279,0.725071,0.729919,0.691541
0.542953,0.72498,0.729846,0.691472
0.542627,0.724889,0.729773,0.691403
0.542302,0.724798,0.7297,0.691334
0.541976,0.724707,0.729627,0.691265
0.541651,0.724616,0.729554,0.691196
0.541326,0.724525,0.729482,0.691127
0.541272,0.724434,0.729409,0.691057
0.541218,0.724343,0.729336,0.690988
0.541164,0.724252,0.729263,0.690919
0.54111,0.724161,0.72919,0.69085
0.541056,0.72407,0.729117,0.690781
0.541001,0.723979,0.729044,0.690712
0.540947,0.723888,0.728971,0.690643
0.540893,0.723797,0.728898,0.690574
0.540839,0.723706,0.728825,0.690505
0.540785,0.723615,0.728752,0.690436
0.540731,0.723524,0.728679,0.690367
0.540677,0.723433,0.728607,0.690298
0.540623,0.723342,0.728534,0.690229
0.540569,0.723251,0.728461,0.69016
0.540515,0.72316,0.728388,0.690091
0.540461,0.723069,0.728315,0.690022
0.540407,0.722978,0.728242,0.689953
0.540353,0.722888,0.72817,0.689884
0.540299,0.722797,0.728097,0.689815
0.540245,0.722706,0.728024,0.689746
0.540191,0.722615,0.727951,0.689677
0.540137,0.722524,0.727878,0.689608
0.540082,0.722433,0.727806,0.689539
0.540028,0.722343,0.727733,0.68947
0.539974,0.722252,0.72766,0.689401
0.53992,0.722161,0.727587,0.689332
0.539866,0.72207,0.727514,0.689263
0.539813,0.72198,0.727442,0.689194
0.539759,0.721889,0.727369,0.689125
0.539705,0.721798,0.727296,0.689056
0.539651,0.721707,0.727223,0.688987
0.539597,0.721617,0.727151,0.688918
0.539543,0.721526,0.727078,0.688849
0.539489,0.721435,0.727005,0.688781
0.539435,0.721345,0.726933,0.688712
0.539381,0.721254,0.72686,0.688643
0.539327,0.721163,0.726787,0.688574
0.539273,0.721073,0.726715,0.688505
0.539219,0.720982,0.726642,0.688436
0.539165,0.720892,0.726569,0.688367
0.539111,0.720801,0.726497,0.688299
0.539057,0.72071,0.726424,0.68823
0.539003,0.72062,0.726351,0.688161
0.538949,0.720529,0.726279,0.688092
0.538896,0.720439,0.726206,0.688023
0.538842,0.720348,0.726133,0.687955
0.538788,0.720258,0.726061,0.687886
0.538734,0.720167,0.725988,0.687817
0.53868,0.720077,0.725916,0.687748
0.538626,0.719986,0.725843,0.687679
0.538572,0.719896,0.72577,0.687611
0.538518,0.719805,0.725698,0.687542
0.538465,0.719715,0.725625,0.687473
0.538411,0.719624,0.725553,0.687404
0.538357,0.719534,0.72548,0.687336
0.538303,0.719443,0.725408,0.687267
0.538249,0.719353,0.725335,0.687198
0.538195,0.719263,0.725263,0.687129
0.538142,0.719172,0.72519,0.687061
0.538088,0.719082,0.725118,0.686992
0.538034,0.718992,0.725045,0.686923
0.53798,0.718901,0.724972,0.686855
0.537926,0.718811,0.7249,0.686786
0.537873,0.718721,0.724827,0.686717
0.537819,0.71863,0.724755,0.686649
0.537765,0.71854,0.724683,0.68658
0.537711,0.71845,0.72461,0.686511
0.537657,0.718359,0.724538,0.686443
0.537604,0.718269,0.724465,0.686374
0.53755,0.718179,0.724393,0.686305
0.537496,0.718089,0.72432,0.686237
0.537442,0.717998,0.724248,0.686168
0.537389,0.717908,0.724175,0.686099
0.537335,0.717818,0.724103,0.686031
0.537281,0.717728,0.724031,0.685962
0.537227,0.717637,0.723958,0.685894
0.537174,0.717547,0.723886,0.685825
0.53712,0.717457,0.723813,0.685756
0.537066,0.717367,0.723741,0.685688
0.537013,0.717277,0.723669,0.685619
0.536959,0.717187,0.723596,0.685551
0.536905,0.717096,0.723524,0.685482
0.536852,0.717006,0.723452,0.685414
0.536798,0.716916,0.723379,0.685345
0.536744,0.716826,0.723307,0.685277
0.53669,0.716736,0.723235,0.685208
0.536637,0.716646,0.723162,0.68514
0.536583,0.716556,0.72309,0.685071
0.53653,0.716466,0.723018,0.685003
