energy,productivity,fun,hunger
0.9999,0.760531,0.637367,0.540051
0.9998,0.760469,0.656422,0.539997
0.9992,0.760407,0.676047,0.539943
0.998601,0.760345,0.696259,0.539889
0.998002,0.760283,0.717075,0.539835
0.997403,0.760222,0.738513,0.539781
0.996804,0.76016,0.73844,0.539728
0.996206,0.760098,0.738366,0.539674
0.995609,0.760036,0.738292,0.53962
0.995011,0.759974,0.738218,0.539566
0.994414,0.759913,0.738144,0.539512
0.993818,0.759851,0.73807,0.539458
0.993222,0.759789,0.737997,0.539404
0.992626,0.759727,0.737923,0.53935
0.99203,0.759666,0.737849,0.539296
0.991435,0.759604,0.737775,0.539242
0.99084,0.759542,0.737701,0.539188
0.990246,0.759481,0.737628,0.539134
0.989652,0.759419,0.737554,0.53908
0.989058,0.759357,0.73748,0.539026
0.988465,0.759295,0.737406,0.538972
0.987872,0.759234,0.737333,0.538918
0.987279,0.759172,0.737259,0.538865
0.986687,0.75911,0.737185,0.538811
0.986095,0.759049,0.737111,0.538757
0.985503,0.758987,0.737038,0.538703
0.984912,0.758925,0.736964,0.538649
0.984321,0.758864,0.73689,0.538595
0.98373,0.758802,0.736817,0.538541
0.98314,0.75874,0.736743,0.538487
0.98255,0.758679,0.736669,0.538434
0.981961,0.758617,0.736596,0.53838
0.981372,0.758555,0.736522,0.538326
0.980783,0.758494,0.736448,0.538272
0.980194,0.758432,0.736375,0.538218
0.979606,0.75837,0.736301,0.538164
0.979019,0.758309,0.736227,0.538111
0.978431,0.758247,0.736154,0.538057
0.977844,0.758186,0.73608,0.538003
0.977258,0.758124,0.736007,0.537949
0.976671,0.758062,0.735933,0.537895
0.976085,0.758001,0.735859,0.537842
0.975988,0.757939,0.735786,0.537788
0.97589,0.757878,0.735712,0.537734
0.975793,0.757816,0.735639,0.53768
0.975695,0.757754,0.735565,0.537627
0.975597,0.757693,0.735491,0.537573
0.9755,0.757631,0.735418,0.537519
0.975402,0.75757,0.735344,0.537465
0.975305,0.757508,0.735271,0.537412
0.975207,0.757447,0.735197,0.537358
0.97511,0.757385,0.735124,0.537304
0.975012,0.757323,0.73505,0.53725
0.974915,0.757262,0.734977,0.537197
0.974817,0.7572,0.734903,0.537143
0.97472,0.757139,0.73483,0.537089
0.974622,0.757077,0.734756,0.537035
0.974525,0.757016,0.734683,0.536982
0.974427,0.756954,0.734609,0.536928
0.97433,0.756893,0.734536,0.536874
0.974232,0.756831,0.734462,0.536821
0.974135,0.75677,0.734389,0.536767
0.974038,0.756708,0.734316,0.536713
0.97394,0.756647,0.734242,0.53666
0.973843,0.756585,0.734169,0.536606
0.973745,0.756524,0.734095,0.536552
0.973648,0.756462,0.734022,0.536499
0.973551,0.756401,0.733949,0.536445
0.973453,0.756339,0.733875,0.536391
0.973356,0.756278,0.733802,0.536338
0.973259,0.756216,0.733728,0.536284
0.973161,0.756155,0.733655,0.53623
0.973064,0.756094,0.733582,0.536177
0.972967,0.756032,0.733508,0.536123
0.972869,0.755971,0.733435,0.53607
0.972772,0.755909,0.733362,0.536016
0.972675,0.755848,0.733288,0.535962
0.972578,0.755786,0.733215,0.535909
0.97248,0.755725,0.733142,0.535855
0.972383,0.755664,0.733068,0.535802
0.972286,0.755602,0.732995,0.535748
0.972189,0.755541,0.732922,0.535694
0.972091,0.755479,0.732848,0.535641
0.971994,0.755418,0.732775,0.535587
0.971897,0.755357,0.732702,0.535534
0.9718,0.755295,0.732629,0.53548
0.971703,0.755234,0.732555,0.535427
0.971605,0.755172,0.732482,0.535373
0.971508,0.755111,0.732409,0.53532
0.971411,0.75505,0.732336,0.535266
0.971314,0.754988,0.732262,0.535213
0.971217,0.754927,0.732189,0.535159
0.97112,0.754866,0.732116,0.535106
0.971023,0.754804,0.732043,0.535052
0.970926,0.754743,0.731969,0.534999
0.970828,0.754682,0.731896,0.534945
0.970731,0.75462,0.731823,0.534892
0.970634,0.754559,0.73175,0.534838
0.970537,0.754498,0.731677,0.534785
0.97044,0.754436,0.731604,0.534731
0.970343,0.754375,0.73153,0.534678
0.970246,0.754314,0.731457,0.534624
0.970149,0.754252,0.731384,0.534571
0.970052,0.754191,0.731311,0.534517
0.969955,0.75413,0.731238,0.534464
0.969858,0.754069,0.731165,0.53441
0.969761,0.754007,0.731092,0.534357
0.969664,0.753946,0.731018,0.534303
0.969567,0.753885,0.730945,0.53425
0.96947,0.753823,0.730872,0.534197
0.969373,0.753762,0.730799,0.534143
0.969276,0.753701,0.730726,0.53409
0.969179,0.75364,0.730653,0.534036
0.969082,0.753578,0.73058,0.533983
0.968986,0.753517,0.730507,0.53393
0.968889,0.753456,0.730434,0.533876
0.968792,0.753395,0.730361,0.533823
0.968695,0.753334,0.730288,0.533769
0.968598,0.753272,0.730215,0.533716
0.968501,0.753211,0.730142,0.533663
0.968404,0.75315,0.730069,0.533609
0.968307,0.753089,0.729996,0.533556
0.968211,0.753028,0.729923,0.533503
0.968114,0.752966,0.72985,0.533449
0.968017,0.752905,0.729777,0.533396
0.96792,0.752844,0.729704,0.533342
0.967823,0.752783,0.729631,0.533289
0.967727,0.752722,0.729558,0.533236
0.96763,0.75266,0.729485,0.533183
0.967533,0.752599,0.729412,0.533129
0.967436,0.752538,0.729339,0.533076
0.96734,0.752477,0.729266,0.533023
0.967243,0.752416,0.729193,0.532969
0.967146,0.752355,0.72912,0.532916
0.967049,0.752294,0.729047,0.532863
0.966953,0.752232,0.728974,0.532809
0.966856,0.752171,0.728901,0.532756
0.966759,0.75211,0.728829,0.532703
0.966663,0.752049,0.728756,0.53265
0.966566,0.751988,0.728683,0.532596
0.966469,0.751927,0.72861,0.532543
0.966373,0.751866,0.728537,0.53249
0.966276,0.751805,0.728464,0.532437
0.966179,0.751744,0.728391,0.532383
0.966083,0.751682,0.728319,0.53233
0.965986,0.751621,0.728246,0.532277
0.96589,0.75156,0.728173,0.532224
0.965793,0.751499,0.7281,0.53217
0.965696,0.751438,0.728027,0.532117
0.9656,0.751377,0.727954,0.532064
0.965503,0.751316,0.727882,0.532011
0.965407,0.751255,0.727809,0.531958
0.96531,0.751194,0.727736,0.531904
0.965214,0.751133,0.727663,0.531851
0.965117,0.751072,0.727591,0.531798
0.965021,0.751011,0.727518,0.531745
0.964924,0.75095,0.727445,0.531692
0.964828,0.750889,0.727372,0.531638
0.964731,0.750828,0.7273,0.531585
0.964635,0.750767,0.727227,0.531532
0.964538,0.750706,0.727154,0.531479
0.964442,0.750645,0.727081,0.531426
0.964345,0.750584,0.727009,0.531373
0.964249,0.750523,0.726936,0.53132
0.964152,0.750462,0.726863,0.531266
0.964056,0.750401,0.726791,0.531213
0.96396,0.75034,0.726718,0.53116
0.963863,0.750279,0.726645,0.531107
0.963767,0.750218,0.726573,0.531054
0.96367,0.750157,0.7265,0.531001
0.963574,0.750096,0.726427,0.530948
0.963478,0.750035,0.726355,0.530895
0.963381,0.749974,0.726282,0.530842
0.963285,0.749913,0.726209,0.530788
0.963189,0.749852,0.726137,0.530735
0.963092,0.749791,0.726064,0.530682
0.962996,0.74973,0.725992,0.530629
0.9629,0.749669,0.725919,0.530576
0.962804,0.749608,0.725846,0.530523
0.962707,0.749547,0.725774,0.53047
0.962611,0.749487,0.725701,0.530417
0.962515,0.749426,0.725629,0.530364
0.962418,0.749365,0.725556,0.530311
0.962322,0.749304,0.725483,0.530258
0.962226,0.749243,0.725411,0.530205
0.96213,0.749182,0.725338,0.530152
0.962034,0.749121,0.725266,0.530099
0.961937,0.74906,0.725193,0.530046
0.961841,0.748999,0.725121,0.529993
0.961745,0.748939,0.725048,0.52994
0.961649,0.748878,0.724976,0.529887
0.961553,0.748817,0.724903,0.529834
0.961456,0.748756,0.724831,0.529781
0.96136,0.748695,0.724758,0.529728
0.961264,0.748634,0.724686,0.529675
0.961168,0.748573,0.724613,0.529622
0.961072,0.748513,0.724541,0.529569
0.960976,0.748452,0.724468,0.529516
0.96088,0.748391,0.724396,0.529463
0.960784,0.74833,0.724324,0.52941
0.960688,0.748269,0.724251,0.529357
0.960592,0.748209,0.724179,0.529304
0.960495,0.748148,0.724106,0.529251
0.960399,0.748087,0.724034,0.529198
0.960303,0.748026,0.723961,0.529145
0.960207,0.747965,0.723889,0.529093
0.960111,0.747905,0.723817,0.52904
0.960015,0.747844,0.723744,0.528987
0.959919,0.747783,0.723672,0.528934
0.959823,0.747722,0.7236,0.528881
0.959727,0.747662,0.723527,0.528828
0.959631,0.747601,0.723455,0.528775
0.959535,0.74754,0.723383,0.528722
0.959439,0.747479,0.72331,0.528669
0.959344,0.747419,0.723238,0.528617
0.959248,0.747358,0.723166,0.528564
0.959152,0.747297,0.723093,0.528511
0.959056,0.747236,0.723021,0.528458
0.95896,0.747176,0.722949,0.528405
0.958864,0.747115,0.722876,0.528352
0.958768,0.747054,0.722804,0.528299
0.958672,0.746993,0.722732,0.528247
0.958576,0.746933,0.722659,0.528194
0.95848,0.746872,0.722587,0.528141
0.958385,0.746811,0.722515,0.528088
0.958289,0.746751,0.722443,0.528035
0.958193,0.74669,0.72237,0.527983
0.958097,0.746629,0.722298,0.52793
0.958001,0.746569,0.722226,0.527877
0.957905,0.746508,0.722154,0.527824
0.95781,0.746447,0.722082,0.527771
0.957714,0.746387,0.722009,0.527719
0.957618,0.746326,0.721937,0.527666
0.957522,0.746265,0.721865,0.527613
0.957427,0.746205,0.721793,0.52756
0.957331,0.746144,0.721721,0.527508
0.957235,0.746083,0.721648,0.527455
0.957139,0.746023,0.721576,0.527402
0.957044,0.745962,0.721504,0.527349
0.956948,0.745902,0.721432,0.527297
0.956852,0.745841,0.72136,0.527244
0.956757,0.74578,0.721288,0.527191
0.956661,0.74572,0.721216,0.527138
0.956565,0.745659,0.721143,0.527086
0.95647,0.745599,0.721071,0.527033
0.956374,0.745538,0.720999,0.52698
0.956278,0.745477,0.720927,0.526928
0.956183,0.745417,0.720855,0.526875
0.956087,0.745356,0.720783,0.526822
0.955992,0.745296,0.720711,0.52677
0.955896,0.745235,0.720639,0.526717
0.9558,0.745175,0.720567,0.526664
0.955705,0.745114,0.720495,0.526612
0.955609,0.745053,0.720423,0.526559
0.955514,0.744993,0.720351,0.526506
0.955418,0.744932,0.720278,0.526454
0.955323,0.744872,0.720206,0.526401
0.955227,0.744811,0.720134,0.526348
0.955131,0.744751,0.720062,0.526296
0.955036,0.74469,0.71999,0.526243
0.95494,0.74463,0.719918,0.52619
0.954845,0.744569,0.719846,0.526138
0.954749,0.744509,0.719774,0.526085
0.954654,0.744448,0.719702,0.526033
0.954559,0.744388,0.719631,0.52598
0.954463,0.744327,0.719559,0.525927
0.954368,0.744267,0.719487,0.525875
0.954272,0.744206,0.719415,0.525822
0.954177,0.744146,0.719343,0.52577
0.954081,0.744085,0.719271,0.525717
0.953986,0.744025,0.719199,0.525664
0.953891,0.743964,0.719127,0.525612
0.953795,0.743904,0.719055,0.525559
0.9537,0.743843,0.718983,0.525507
0.953604,0.743783,0.718911,0.525454
0.953509,0.743723,0.718839,0.525402
0.953414,0.743662,0.718767,0.525349
0.953318,0.743602,0.718696,0.525297
0.953223,0.743541,0.718624,0.525244
0.953128,0.743481,0.718552,0.525192
0.953032,0.74342,0.71848,0.525139
0.952937,0.74336,0.718408,0.525087
0.952842,0.7433,0.718336,0.525034
0.952746,0.743239,0.718264,0.524981
0.952651,0.743179,0.718193,0.524929
0.952556,0.743118,0.718121,0.524877
0.952461,0.743058,0.718049,0.524824
0.952365,0.742998,0.717977,0.524772
0.95227,0.742937,0.717905,0.524719
0.952175,0.742877,0.717834,0.524667
0.95208,0.742817,0.717762,0.524614
0.951985,0.742756,0.71769,0.524562
0.951889,0.742696,0.717618,0.524509
0.951794,0.742635,0.717546,0.524457
0.951699,0.742575,0.717475,0.524404
0.951604,0.742515,0.717403,0.524352
0.951509,0.742454,0.717331,0.524299
0.951414,0.742394,0.71726,0.524247
0.951318,0.742334,0.717188,0.524195
0.951223,0.742273,0.717116,0.524142
0.951128,0.742213,0.717044,0.52409
0.951033,0.742153,0.716973,0.524037
0.950938,0.742092,0.716901,0.523985
0.950843,0.742032,0.716829,0.523933
0.950748,0.741972,0.716758,0.52388
0.950653,0.741912,0.716686,0.523828
0.950558,0.741851,0.716614,0.523775
0.950463,0.741791,0.716543,0.523723
0.950367,0.741731,0.716471,0.523671
0.950272,0.74167,0.716399,0.523618
0.950177,0.74161,0.716328,0.523566
0.950082,0.74155,0.716256,0.523514
0.949987,0.74149,0.716184,0.523461
0.949892,0.741429,0.716113,0.523409
0.949797,0.741369,0.716041,0.523356
0.949702,0.741309,0.71597,0.523304
0.949607,0.741249,0.715898,0.523252
0.949512,0.741188,0.715826,0.523199
0.949418,0.741128,0.715755,0.523147
0.949323,0.741068,0.715683,0.523095
0.949228,0.741008,0.715612,0.523043
0.949133,0.740948,0.71554,0.52299
0.949038,0.740887,0.715469,0.522938
0.948943,0.740827,0.715397,0.522886
0.948848,0.740767,0.715325,0.522833
0.948753,0.740707,0.715254,0.522781
0.948658,0.740647,0.715182,0.522729
0.948563,0.740586,0.715111,0.522677
0.948469,0.740526,0.715039,0.522624
0.948374,0.740466,0.714968,0.522572
0.948279,0.740406,0.714896,0.52252
0.948184,0.740346,0.714825,0.522467
0.948089,0.740285,0.714753,0.522415
0.947994,0.740225,0.714682,0.522363
0.9479,0.740165,0.71461,0.522311
0.947805,0.740105,0.714539,0.522259
0.94771,0.740045,0.714468,0.522206
0.947615,0.739985,0.714396,0.522154
0.947521,0.739925,0.714325,0.522102
0.947426,0.739864,0.714253,0.52205
0.947331,0.739804,0.714182,0.521997
0.947236,0.739744,0.71411,0.521945
0.947142,0.739684,0.714039,0.521893
0.947047,0.739624,0.713968,0.521841
0.946952,0.739564,0.713896,0.521789
0.946857,0.739504,0.713825,0.521737
0.946763,0.739444,0.713753,0.521684
0.946668,0.739384,0.713682,0.521632
0.946573,0.739324,0.713611,0.52158
0.946479,0.739263,0.713539,0.521528
0.946384,0.739203,0.713468,0.521476
0.946289,0.739143,0.713397,0.521424
0.946195,0.739083,0.713325,0.521371
0.9461,0.739023,0.713254,0.521319
0.946006,0.738963,0.713183,0.521267
0.945911,0.738903,0.713111,0.521215
0.945816,0.738843,0.71304,0.521163
0.945722,0.738783,0.712969,0.521111
0.945627,0.738723,0.712897,0.521059
0.945533,0.738663,0.712826,0.521007
0.945438,0.738603,0.712755,0.520954
0.945344,0.738543,0.712683,0.520902
0.945249,0.738483,0.712612,0.52085
0.945155,0.738423,0.712541,0.520798
0.94506,0.738363,0.71247,0.520746
0.944966,0.738303,0.712398,0.520694
0.944871,0.738243,0.712327,0.520642
0.944777,0.738183,0.712256,0.52059
0.944682,0.738123,0.712185,0.520538
0.944588,0.738063,0.712114,0.520486
0.944493,0.738003,0.712042,0.520434
0.944399,0.737943,0.711971,0.520382
0.944304,0.737883,0.7119,0.52033
0.94421,0.737823,0.711829,0.520278
0.944115,0.737763,0.711758,0.520226
0.944021,0.737703,0.711686,0.520174
0.943927,0.737643,0.711615,0.520122
0.943832,0.737583,0.711544,0.52007
0.943738,0.737523,0.711473,0.520018
0.943643,0.737463,0.711402,0.519966
0.943549,0.737403,0.711331,0.519914
0.943455,0.737343,0.711259,0.519862
0.94336,0.737284,0.711188,0.51981
0.943266,0.737224,0.711117,0.519758
0.943172,0.737164,0.711046,0.519706
0.943077,0.737104,0.710975,0.519654
0.942983,0.737044,0.710904,0.519602
0.942889,0.736984,0.710833,0.51955
0.942794,0.736924,0.710762,0.519498
0.9427,0.736864,0.710691,0.519446
0.942606,0.736804,0.71062,0.519394
0.942512,0.736744,0.710549,0.519342
0.942417,0.736685,0.710477,0.51929
0.942323,0.736625,0.710406,0.519238
0.942229,0.736565,0.731645,0.519186
0.941664,0.736505,0.731572,0.519134
0.941099,0.736445,0.731499,0.519082
0.940534,0.736385,0.731426,0.51903
0.93997,0.736326,0.731353,0.518978
0.939406,0.736266,0.73128,0.518927
0.938842,0.736206,0.731207,0.518875
0.938279,0.736146,0.731133,0.518823
0.937716,0.736086,0.73106,0.518771
0.937154,0.736026,0.730987,0.518719
0.936591,0.735967,0.730914,0.518667
0.936029,0.735907,0.730841,0.518615
0.935468,0.735847,0.730768,0.518563
0.934907,0.735787,0.730695,0.518512
0.934346,0.735727,0.730622,0.51846
0.933785,0.735668,0.730549,0.518408
0.933225,0.735608,0.730476,0.518356
0.932665,0.735548,0.730403,0.518304
0.932105,0.735488,0.73033,0.518252
0.931546,0.735428,0.730257,0.518201
0.930987,0.735369,0.730184,0.518149
0.930429,0.735309,0.730111,0.518097
0.929871,0.735249,0.730038,0.518045
0.929313,0.735189,0.729965,0.517993
0.928755,0.73513,0.729892,0.517942
0.928198,0.73507,0.729819,0.51789
0.927641,0.73501,0.729746,0.517838
0.927085,0.734951,0.729673,0.517786
0.926992,0.734891,0.7296,0.517734
0.926899,0.734831,0.729527,0.517683
0.926806,0.734771,0.729454,0.517631
0.926714,0.734712,0.729381,0.517579
0.926621,0.734652,0.729308,0.517527
0.926528,0.734592,0.729235,0.517476
0.926436,0.734533,0.729162,0.517424
0.926343,0.734473,0.729089,0.517372
0.926251,0.734413,0.729016,0.51732
0.926158,0.734353,0.728943,0.517269
0.926065,0.734294,0.72887,0.517217
0.925973,0.734234,0.728797,0.517165
0.92588,0.734174,0.728725,0.517113
0.925787,0.734115,0.728652,0.517062
0.925695,0.734055,0.728579,0.51701
0.925602,0.733996,0.728506,0.516958
0.92551,0.733936,0.728433,0.516907
0.925417,0.733876,0.72836,0.516855
0.925325,0.733817,0.728287,0.516803
0.925232,0.733757,0.728215,0.516752
0.92514,0.733697,0.728142,0.5167
0.925047,0.733638,0.728069,0.516648
0.924955,0.733578,0.727996,0.516597
0.924862,0.733518,0.727923,0.516545
0.92477,0.733459,0.727851,0.516493
0.924677,0.733399,0.727778,0.516442
0.924585,0.73334,0.727705,0.51639
0.924492,0.73328,0.727632,0.516338
0.9244,0.73322,0.727559,0.516287
0.924307,0.733161,0.727487,0.516235
0.924215,0.733101,0.727414,0.516183
0.924122,0.733042,0.727341,0.516132
0.92403,0.732982,0.727269,0.51608
0.923938,0.732923,0.727196,0.516029
0.923845,0.732863,0.727123,0.515977
0.923753,0.732803,0.72705,0.515925
0.923661,0.732744,0.726978,0.515874
0.923568,0.732684,0.726905,0.515822
0.923476,0.732625,0.726832,0.515771
0.923383,0.732565,0.72676,0.515719
0.923291,0.732506,0.726687,0.515667
0.923199,0.732446,0.726614,0.515616
0.923106,0.732387,0.726542,0.515564
0.923014,0.732327,0.726469,0.515513
0.922922,0.732268,0.726396,0.515461
0.92283,0.732208,0.726324,0.51541
0.922737,0.732149,0.726251,0.515358
0.922645,0.732089,0.726178,0.515307
0.922553,0.73203,0.726106,0.515255
0.92246,0.73197,0.726033,0.515204
0.922368,0.731911,0.725961,0.515152
0.922276,0.731851,0.725888,0.515101
0.922184,0.731792,0.725815,0.515049
0.922092,0.731732,0.725743,0.514998
0.921999,0.731673,0.72567,0.514946
0.921907,0.731613,0.725598,0.514895
0.921815,0.731554,0.725525,0.514843
0.921723,0.731495,0.725453,0.514792
0.921631,0.731435,0.72538,0.51474
0.921538,0.731376,0.725307,0.514689
0.921446,0.731316,0.725235,0.514637
0.921354,0.731257,0.725162,0.514586
0.921262,0.731197,0.72509,0.514534
0.92117,0.731138,0.725017,0.514483
0.921078,0.731079,0.724945,0.514431
0.920986,0.731019,0.724872,0.51438
0.920894,0.73096,0.7248,0.514328
0.920801,0.7309,0.724727,0.514277
0.920709,0.730841,0.724655,0.514226
0.920617,0.730782,0.724582,0.514174
0.920525,0.730722,0.72451,0.514123
0.920433,0.730663,0.724438,0.514071
0.920341,0.730603,0.724365,0.51402
0.920249,0.730544,0.724293,0.513968
0.920157,0.730485,0.72422,0.513917
0.920065,0.730425,0.724148,0.513866
0.919973,0.730366,0.724075,0.513814
0.919881,0.730307,0.724003,0.513763
0.919789,0.730247,0.723931,0.513712
0.919697,0.730188,0.723858,0.51366
0.919605,0.730129,0.723786,0.513609
0.919513,0.730069,0.723713,0.513557
0.919421,0.73001,0.723641,0.513506
0.919329,0.729951,0.723569,0.513455
0.919237,0.729891,0.723496,0.513403
0.919145,0.729832,0.723424,0.513352
0.919054,0.729773,0.723352,0.513301
0.918962,0.729713,0.723279,0.513249
0.91887,0.729654,0.723207,0.513198
0.918778,0.729595,0.723135,0.513147
0.918686,0.729535,0.723062,0.513095
0.918594,0.729476,0.72299,0.513044
0.918502,0.729417,0.722918,0.512993
0.91841,0.729358,0.722845,0.512942
0.918319,0.729298,0.722773,0.51289
0.918227,0.729239,0.722701,0.512839
0.918135,0.72918,0.722629,0.512788
0.918043,0.729121,0.722556,0.512736
0.917951,0.729061,0.722484,0.512685
0.917859,0.729002,0.722412,0.512634
0.917768,0.728943,0.72234,0.512583
0.917676,0.728884,0.722267,0.512531
0.917584,0.728824,0.722195,0.51248
0.917492,0.728765,0.722123,0.512429
0.917401,0.728706,0.722051,0.512378
0.917309,0.728647,0.721979,0.512326
0.917217,0.728587,0.721906,0.512275
0.917125,0.728528,0.721834,0.512224
0.917034,0.728469,0.721762,0.512173
0.916942,0.72841,0.72169,0.512121
0.91685,0.728351,0.721618,0.51207
0.916759,0.728291,0.721545,0.512019
0.916667,0.728232,0.721473,0.511968
0.916575,0.728173,0.721401,0.511917
0.916484,0.728114,0.721329,0.511865
0.916392,0.728055,0.721257,0.511814
0.9163,0.727996,0.721185,0.511763
0.916209,0.727936,0.721113,0.511712
0.916117,0.727877,0.721041,0.511661
0.916025,0.727818,0.720968,0.51161
0.915934,0.727759,0.720896,0.511558
0.915842,0.7277,0.720824,0.511507
0.915751,0.727641,0.720752,0.511456
0.915659,0.727582,0.72068,0.511405
0.915568,0.727522,0.720608,0.511354
0.915476,0.727463,0.720536,0.511303
0.915384,0.727404,0.720464,0.511252
0.915293,0.727345,0.720392,0.5112
0.915201,0.727286,0.72032,0.511149
0.91511,0.727227,0.720248,0.511098
0.915018,0.727168,0.720176,0.511047
0.914927,0.727109,0.720104,0.510996
0.914835,0.72705,0.720032,0.510945
0.914744,0.726991,0.71996,0.510894
0.914652,0.726931,0.719888,0.510843
0.914561,0.726872,0.719816,0.510792
0.914469,0.726813,0.719744,0.51074
0.914378,0.726754,0.719672,0.510689
0.914287,0.726695,0.7196,0.510638
